4.53493547452973e-08
1.21818426710362e-07
2.16514633096479e-07
3.11338527346902e-07
3.93764878519619e-07
4.55760615345146e-07
4.83390610365721e-07
4.53699296260082e-07
3.50111807569983e-07
1.90520925332363e-07
4.41986695233894e-08
4.35781935885384e-09
1.28484662265678e-07
3.97430677545652e-07
7.24464784877948e-07
9.98570752500991e-07
1.12866637024391e-06
1.07493568335472e-06
8.63206379767791e-07
5.72848041965411e-07
2.97247605400597e-07
1.01542720573882e-07
8.71481092639529e-09
1.56087075149087e-08
1.12155539258757e-07
2.81182546534332e-07
4.81930076650986e-07
6.43548365834286e-07
6.92309840183991e-07
6.00303253521477e-07
4.10260664665643e-07
2.08146940963106e-07
6.65387101971625e-08
6.54685419171797e-09
2.36931730149693e-09
1.41257680698312e-08
1.7907615012418e-08
1.25977565781996e-08
6.64300351236732e-09
4.70582437796191e-09
8.11302478363053e-09
2.11005464472852e-08
4.67980733485819e-08
7.59964370157641e-08
8.85728332702661e-08
7.24137675438593e-08
3.79901343122796e-08
9.13460739620307e-09
3.36724041165776e-13
4.60237478971422e-09
8.47407350893934e-09
5.62108112137116e-09
1.05679875480382e-09
1.51393134644767e-10
1.49600550495376e-09
1.28826566773451e-09
4.24069867514199e-11
1.28145919047673e-09
5.25046041950765e-09
7.64738619848041e-09
5.37405589203164e-09
1.14407015371178e-09
3.03135218861077e-10
3.83397080067166e-09
6.87755282165294e-09
5.08663800312932e-09
8.36135809326001e-10
1.00554943113352e-09
8.26087669753908e-09
1.64031264651079e-08
1.66564260856842e-08
8.43403674524548e-09
8.06588263807573e-10
1.52297854441309e-09
7.46439456224542e-09
9.49726745460493e-09
4.92607576201654e-09
3.03057273341421e-10
1.48782873842747e-09
5.59888661143149e-09
5.86857145141972e-09
1.8367202573638e-09
1.85797021327442e-10
5.10601695798634e-09
1.18850140951587e-08
1.26636924835776e-08
6.48360633358343e-09
5.50437510442878e-10
1.63297705740828e-09
8.29976266821613e-09
1.27372973134665e-08
9.76113415721149e-09
2.82879476299288e-09
8.95307611476795e-11
4.71641146600035e-09
1.09502331617689e-08
1.10229758614707e-08
4.81269156495505e-09
1.01650653447559e-10
2.69967607542266e-09
8.99084412843405e-09
1.08579246547459e-08
6.28619572186126e-09
1.07230884161818e-09
2.36214932710681e-10
2.18827936271874e-09
2.74600468773113e-09
1.20908592622865e-09
2.8429544536987e-11
4.44590940448486e-10
1.02189321538797e-09
4.60426590860342e-10
5.38791886341016e-11
1.83674317025106e-09
4.75004348437908e-09
5.08479019768784e-09
1.98363081327783e-09
2.08239355232809e-11
3.45111955397147e-09
9.42775960749126e-09
1.07485101092142e-08
5.48853293114436e-09
2.96549398077113e-10
2.31892565187907e-09
1.00573258360464e-08
1.48479948711067e-08
1.1108965593446e-08
3.07986491893092e-09
1.58081412232516e-10
5.95229031991074e-09
1.36323461536778e-08
1.37977185141746e-08
6.17422192514609e-09
1.91432811427587e-10
2.83290721921207e-09
9.67118823407037e-09
1.12377834640868e-08
5.64761499256168e-09
3.54981028400481e-10
1.7042280355494e-09
6.92248413230334e-09
8.52223161380378e-09
4.41389183937945e-09
2.68973722083944e-10
1.44552368312552e-09
5.7252748009231e-09
6.76030369435505e-09
3.10551754715264e-09
5.07971730896492e-11
1.96180273190456e-09
6.17887909916472e-09
6.88286882178273e-09
3.17747579762446e-09
9.48749385821566e-11
1.49985800532381e-09
5.02212126299725e-09
5.68791198643524e-09
2.68418954436854e-09
9.47024757879652e-11
1.2043615604555e-09
4.16430861018948e-09
4.57153082995789e-09
1.6881675987095e-09
4.56479860055654e-11
3.40937723137055e-09
8.65220430025409e-09
9.00217969820888e-09
3.65004128209281e-09
5.01665002315205e-13
3.89587457616592e-09
1.10604659123386e-08
1.24415192822658e-08
6.36121381967547e-09
5.13331450124844e-10
1.42998984483917e-09
6.29016315613695e-09
7.61213935659887e-09
3.5310714428323e-09
3.63397652279283e-11
2.92634920705148e-09
9.88809425007077e-09
1.26604044206918e-08
7.37555710648633e-09
6.59182366403065e-10
2.41722092692796e-09
1.27654162851667e-08
2.04910831697425e-08
1.67446572459481e-08
6.12747764380616e-09
1.03291297446115e-10
2.45749536896493e-09
6.56581536892257e-09
5.93093569972968e-09
1.96428999091864e-09
3.31257688452298e-13
1.51102455250191e-09
3.19836660827961e-09
2.38681074279566e-09
4.43440950035688e-10
2.00605461431963e-10
1.74464908275246e-09
2.50960979346811e-09
1.26058674116275e-09
1.76020523991889e-11
8.79815630889056e-10
2.40497942483015e-09
1.66038080111641e-09
1.50558466464973e-12
3.69085988193393e-09
1.58285670093521e-08
2.8905282756879e-08
3.01007635938796e-08
1.65195355900951e-08
1.90294060260758e-09
3.4343819231579e-09
2.22802280929362e-08
4.14187488133665e-08
4.36681267491925e-08
2.85657973369849e-08
1.00628222718912e-08
6.83923538383613e-10
1.00367508348602e-09
3.58144906788381e-09
3.26995135084732e-09
1.16314376645786e-09
5.99793753001326e-11
2.90785609024402e-11
1.34736683154026e-11
1.0731198759411e-09
4.84903455550668e-09
9.46094950225176e-09
1.01960605144697e-08
5.57375756583059e-09
5.60414953493278e-10
1.3564421703415e-09
7.64658671558495e-09
1.24678290912151e-08
1.03592963848746e-08
3.7743644182947e-09
1.70988814774152e-11
2.62361908759156e-09
7.46576072273387e-09
8.08078237737134e-09
3.7474842606255e-09
1.4221769690469e-10
1.43722774537134e-09
4.50136051196324e-09
3.82292933068067e-09
4.69312121330684e-10
1.60577915600114e-09
1.03042220608154e-08
1.98109077013375e-08
2.06896555875207e-08
1.18920316254187e-08
2.14640925026729e-09
7.40027440819765e-10
8.73261856549319e-09
1.93076752980052e-08
2.51246544767449e-08
2.43967883389333e-08
2.0676163482039e-08
1.87137304289007e-08
2.20854136497716e-08
3.39485479717275e-08
5.56901342886493e-08
8.02393050045659e-08
8.8920651687196e-08
6.53903645887217e-08
2.09898088485398e-08
5.63562206104504e-10
4.79413020865486e-08
1.59582313517904e-07
2.80983128877249e-07
3.54498080045385e-07
3.64383654951013e-07
3.33944206528148e-07
2.92075310928739e-07
2.50405178544984e-07
2.03707259347358e-07
1.43426433437077e-07
7.28940090617266e-08
1.4433314108028e-08
4.70727633758648e-09
8.32992282735675e-08
2.76365803474987e-07
5.70836368180985e-07
8.88873816757002e-07
1.09858609198723e-06
1.08566483179655e-06
8.4314930634582e-07
4.89761538977815e-07
1.86080965700222e-07
2.65280821313624e-08
4.57573704006199e-09
5.96452952175604e-08
1.3817850051862e-07
2.16733313306178e-07
2.90527167819791e-07
3.54400373616769e-07
3.93773058169243e-07
3.90086966295618e-07
3.35047780966442e-07
2.40727899984587e-07
1.3606996967972e-07
5.23981747999512e-08
8.02552270294919e-09
9.16339936462408e-10
1.35095103444782e-08
2.64835091880119e-08
3.08348168939567e-08
2.89482752928073e-08
2.71955372272538e-08
3.01293034156601e-08
3.96275543596559e-08
5.41404853590101e-08
6.66961458971043e-08
6.71068348923605e-08
5.0400659942942e-08
2.39209145880273e-08
3.75491807347097e-09
1.21836957646129e-09
1.21466854310233e-08
2.13289238145143e-08
1.85074558118685e-08
7.95557145039226e-09
7.22727564854227e-10
6.39459500626769e-10
2.26357211203803e-09
1.13909631123587e-09
4.90562745797309e-11
2.97533314604597e-09
7.51275363838211e-09
7.86282062896986e-09
3.51286500191045e-09
1.08549306496702e-10
1.50363270928782e-09
4.98700115329657e-09
5.68043350346832e-09
2.81797784066424e-09
1.30778535855106e-10
1.41813073698325e-09
6.46627129710927e-09
1.05967011023554e-08
8.89062865927137e-09
2.64144079536354e-09
2.72730055986826e-10
7.74996249666364e-09
1.86009960631518e-08
1.98051008802076e-08
9.27730340128666e-09
3.15337651692982e-10
4.44546767733414e-09
1.60998097864297e-08
2.04916361482968e-08
1.27662965493863e-08
2.52688715423588e-09
4.78166927397155e-10
6.42338299900326e-09
1.1763533295473e-08
1.02758301697977e-08
4.12307501424809e-09
1.18068654696594e-10
1.62550212413463e-09
5.20284983870016e-09
5.55816461208009e-09
2.38617084184586e-09
5.16151128640136e-11
1.05977403526238e-09
2.95511079434302e-09
2.5460893071104e-09
5.61066070090554e-10
2.06684507149929e-10
2.31390684513765e-09
4.03863172903003e-09
2.87775588771795e-09
4.5225427167883e-10
4.4859168431589e-10
3.1639556317014e-09
4.71395105587504e-09
2.71337665944944e-09
1.52780964730609e-10
1.20034861879141e-09
4.81868992654208e-09
5.90425885971868e-09
2.75819109077535e-09
2.34919205385626e-11
2.30893321936018e-09
7.28158169538889e-09
8.39893328984187e-09
4.00629825481971e-09
9.97133100356557e-11
2.34398419004661e-09
7.91378924411038e-09
8.87297107628624e-09
3.51200771432219e-09
2.82752746257198e-11
5.89964143723575e-09
1.65667422837103e-08
1.99075679446795e-08
1.17286642233246e-08
1.65311618437153e-09
1.60086025000823e-09
1.17842514680458e-08
2.09801767805299e-08
1.95163295482786e-08
9.45238307686054e-09
1.10871216773742e-09
8.73258279383374e-10
4.87016678813482e-09
5.56956202741375e-09
2.01609582492439e-09
2.88518911325157e-11
2.98295966978513e-09
6.76339517020442e-09
5.84096749988218e-09
1.46151295869148e-09
3.69593065765571e-10
5.73264178359427e-09
1.23539245105085e-08
1.27087199501453e-08
6.37015305320338e-09
6.05276374767085e-10
1.01906039095309e-09
4.62034449615092e-09
4.87398821564877e-09
1.41789728193733e-09
2.03804076587618e-10
4.0512605115777e-09
7.95444036886899e-09
6.23478426165927e-09
1.20094313640706e-09
8.58630679996583e-10
8.26816482609227e-09
1.64624038655786e-08
1.62087872559161e-08
7.56628270465622e-09
4.11772526055891e-10
2.53677725356613e-09
1.02996144438332e-08
1.37183626166591e-08
8.89588654809804e-09
1.87054331139187e-09
3.01303671302798e-10
4.5339440407781e-09
8.44023315446487e-09
7.36632860688593e-09
2.9717733503639e-09
1.24938023822627e-10
7.67791683238705e-10
2.29172045110783e-09
1.76816321503327e-09
1.69439871887516e-10
6.98180021863436e-10
3.29925023998632e-09
3.93747239467159e-09
1.22331279372031e-09
3.45213171592441e-10
6.09642658336212e-09
1.43618748057634e-08
1.61534091420168e-08
9.4413063339735e-09
1.74663333079937e-09
3.48455857825755e-10
4.04175135492273e-09
6.28616847577705e-09
4.00542122440738e-09
6.0123897542855e-10
3.98556404649164e-10
2.61994987662701e-09
3.08351008900409e-09
9.21438465025914e-10
2.12777470535889e-10
3.71049271485839e-09
7.96167651750295e-09
7.64098717451219e-09
3.13117439001203e-09
6.1703737287578e-11
1.3631981526209e-09
3.5755378423779e-09
2.58976844812725e-09
1.50292382767095e-10
1.8910268724945e-09
9.52822167661243e-09
1.70704742189854e-08
1.62979424553763e-08
6.88894275069489e-09
1.38883200446432e-11
8.15161921768282e-09
2.93467105494241e-08
4.54422472368192e-08
4.06310706100808e-08
1.97058915117979e-08
2.55736377347077e-09
1.43790601701982e-09
9.56406049052014e-09
1.30910615866573e-08
8.13123167196808e-09
1.75581267728812e-09
4.95392345955539e-11
1.32355415879225e-09
1.31126642138985e-09
8.83622470933618e-11
9.58335104087919e-10
4.53835181900258e-09
7.14538515687552e-09
5.56087301819933e-09
1.56771438588351e-09
8.18614749035307e-11
2.97919502205762e-09
6.51053790495625e-09
6.01275624684597e-09
2.10144867677265e-09
8.55318858584531e-12
2.54578087079966e-09
6.18719050137994e-09
5.93975640988187e-09
2.25530496114798e-09
1.28320111979873e-11
1.19441878451198e-09
2.36273715530858e-09
8.74861311620234e-10
3.27026330788302e-10
5.97744576346348e-09
1.53723235793567e-08
1.84057996891519e-08
1.01305230547665e-08
5.47132396760624e-10
5.85910284655911e-09
2.95832387192569e-08
5.6901795685453e-08
6.89197101471961e-08
5.94863246178201e-08
3.7802060982928e-08
1.78949444957924e-08
7.1710094498496e-09
4.43246710695098e-09
7.61587325643198e-09
1.84808812710922e-08
3.34614654502343e-08
3.5981624806539e-08
1.59152282884988e-08
1.90508825898867e-10
4.31927120130106e-08
1.71687097485357e-07
3.48084119367716e-07
4.969296437605e-07
5.60754811281881e-07
5.28018563663284e-07
4.22690529085344e-07
2.82649337428033e-07
1.46213652505123e-07
4.53977097390754e-08
1.08956134348607e-09
2.33778486350891e-08
1.19326494760878e-07
2.98866351296006e-07
5.63443806026447e-07
8.747670453685e-07
1.13251835188793e-06
1.20814388938753e-06
1.03597742811944e-06
6.8144707693203e-07
3.06802555358327e-07
6.18918919898363e-08
2.07518042842556e-09
8.80225639437005e-08
2.3695085670481e-07
3.72604059471989e-07
4.51351133632867e-07
4.66276357878584e-07
4.35579659269507e-07
3.83211854663656e-07
3.23013660029731e-07
2.54903508253591e-07
1.74009360382145e-07
8.67650756692012e-08
1.91570738426498e-08
1.08226646779735e-09
3.55016712466038e-08
8.82611390162458e-08
1.16201248906301e-07
1.03354461024474e-07
6.64624101609213e-08
3.14128765259883e-08
1.12612676308891e-08
3.95948450502553e-09
3.01289558824805e-09
5.95780816955829e-09
1.31244595111446e-08
2.13762462904851e-08
2.35377625478353e-08
1.61875993731595e-08
5.18813592667295e-09
9.73950483356674e-12
3.63170590850817e-09
1.05080916332487e-08
1.35083897840303e-08
1.05942310353231e-08
5.04234937232631e-09
1.06605692965636e-09
1.61968231639461e-13
2.68688443023378e-10
2.18377446452063e-10
1.08871892409681e-13
3.13969858971163e-10
6.03446313841624e-10
1.55394914739623e-10
3.20979544870791e-10
3.13239438809107e-09
7.17724987861082e-09
7.66941979038631e-09
3.09111007360798e-09
5.7819345666499e-11
7.32703596940008e-09
2.37283451112187e-08
3.58304845289981e-08
3.15155585639464e-08
1.45181790708789e-08
1.24278390153132e-09
2.70681147722382e-09
1.34136883973446e-08
1.97293148540184e-08
1.57041458127586e-08
7.03822131362173e-09
1.39910187012649e-09
3.016548457197e-11
2.7122197266429e-12
1.90097325525774e-10
1.60755134790322e-09
3.8977934961482e-09
4.72131958496811e-09
2.76360555718055e-09
1.94149867871143e-10
1.67656338520274e-09
9.87880233337695e-09
2.07162037235184e-08
2.48633012685615e-08
1.75272747786576e-08
5.56019033029563e-09
2.35281660238818e-11
2.537123700579e-09
5.02541162770915e-09
2.68003296373828e-09
2.72926771225699e-11
2.01797637476238e-09
5.35481926942759e-09
3.92538320511179e-09
1.46050390483865e-10
3.9815871008524e-09
1.86311769282439e-08
3.28853734531587e-08
3.29241875518809e-08
1.88066528730273e-08
4.05087960929454e-09
2.66108860303798e-10
6.6233184666559e-09
1.38357373239878e-08
1.45625970007048e-08
9.08641413514686e-09
2.90439938827996e-09
1.81491904973238e-10
8.16107634049866e-11
1.50852080061928e-11
6.44048184605974e-10
3.71617481576531e-09
6.02400666526102e-09
3.06406702237249e-09
7.1727873203145e-11
9.04348945248086e-09
2.94142754252301e-08
4.22109348842828e-08
3.24432053447096e-08
1.01272621578726e-08
9.51031568306599e-11
1.44458428436051e-08
4.12215630306409e-08
5.77885436347868e-08
5.11547001128117e-08
2.73801368904445e-08
5.34547773128071e-09
8.24283836907431e-10
1.32013826198132e-08
2.69029593842316e-08
2.73419582673597e-08
1.52302496000769e-08
3.29299420174694e-09
2.93859430040357e-11
1.63232007149487e-09
1.32609434280576e-09
1.35201609519249e-12
1.8018426450216e-09
4.6356871590706e-09
3.59777223382715e-09
4.48888153015427e-10
8.29744471584769e-10
4.29201322405258e-09
5.29806772085812e-09
2.51630460697096e-09
1.20537318812508e-10
6.72877328147855e-10
2.03522025428841e-09
1.53948288150334e-09
9.09646427360635e-11
1.29715684326594e-09
7.16211007520431e-09
1.45543404319141e-08
1.65925364063492e-08
9.87926912008055e-09
1.11069140795805e-09
3.05428763609326e-09
2.00080469695401e-08
3.88071060195752e-08
4.03111135696579e-08
2.19510382130049e-08
3.01787733051291e-09
2.24262352664598e-09
1.53670269683441e-08
2.30804580451708e-08
1.68291637836564e-08
5.78804089268087e-09
3.49900717630792e-10
3.85713441100366e-10
8.9231329115925e-10
2.69453808329284e-10
7.96655373838273e-11
1.11126278070699e-09
2.13409486567914e-09
1.59792535502763e-09
1.34662302129871e-10
1.20800044068419e-09
7.39499559741511e-09
1.50228344907104e-08
1.5891670517588e-08
7.85058300909228e-09
3.53403689538431e-10
3.57100030957954e-09
1.38167395851695e-08
1.73638863626212e-08
9.32561220885548e-09
6.60842612600279e-10
2.85724874359394e-09
1.248651169978e-08
1.68903059358995e-08
1.11014916576468e-08
2.57095944638074e-09
1.56355414268119e-10
3.94554603685586e-09
7.4009488580428e-09
6.20482234867995e-09
2.33085199145868e-09
8.57691225859384e-11
4.43868128134406e-10
8.16432829036783e-10
5.27977017610957e-11
1.4209035061909e-09
8.20744289959864e-09
1.68755787677012e-08
1.85642363210676e-08
1.01289079114778e-08
8.54303696286016e-10
3.35674488579517e-09
1.796685897756e-08
3.08644657637151e-08
2.95027557072323e-08
1.62522744896233e-08
3.82966591294707e-09
1.05969568291728e-14
1.42799671993536e-09
1.83018714377195e-09
4.59061190977496e-10
8.6576073317162e-11
9.11585771839459e-10
7.91694584805589e-10
7.75792628950779e-13
1.85360056210335e-09
7.75077359368078e-09
1.36012138725838e-08
1.3250612819466e-08
6.1834955717507e-09
2.0874700161557e-10
3.42191071879842e-09
1.32172474150206e-08
1.7648188553418e-08
1.05663306801127e-08
1.11604195538686e-09
2.61315406791153e-09
1.44811874294762e-08
2.24478949679396e-08
1.7124053755493e-08
5.33942656775024e-09
4.2283467033862e-13
4.102492971015e-09
9.45448701833059e-09
8.50231064992138e-09
2.85461727643251e-09
2.43654116641442e-11
3.98240028113986e-09
1.01012081765542e-08
1.03316071988697e-08
3.87557037790759e-09
5.37879305971217e-11
7.17048049137578e-09
2.07433633566798e-08
2.81111217559205e-08
2.37017121521693e-08
1.39019947933253e-08
7.10870402743941e-09
5.9218838738926e-09
1.1750196817312e-08
3.02023510371378e-08
6.27187925666742e-08
9.2284475139071e-08
8.9279609018151e-08
4.56318647340375e-08
2.50183881057921e-09
2.71165233199889e-08
1.49307487709527e-07
3.25568977782017e-07
4.73018679697904e-07
5.34362517980154e-07
5.07072189679167e-07
4.22968721379105e-07
3.15627486999373e-07
2.06483188721043e-07
1.08752419898885e-07
3.49368362807549e-08
5.68713316007756e-10
2.64186346791726e-08
1.40413243009476e-07
3.69996971853021e-07
7.12296661531776e-07
1.09225562609141e-06
1.358325649237e-06
1.36043697383488e-06
1.06920438560171e-06
6.19783087246741e-07
2.22082695027046e-07
1.98253875509728e-08
2.48520953676856e-08
1.57601719030955e-07
3.25269732335971e-07
4.68010555098543e-07
5.61050865304608e-07
5.97594741229493e-07
5.75667764511883e-07
4.96321763932782e-07
3.69888040424574e-07
2.22175452691044e-07
9.17223358836288e-08
1.43996594803693e-08
2.8774782479017e-09
3.74603750984278e-08
7.8882923917393e-08
9.4764850884277e-08
7.85507380508044e-08
4.67895004943458e-08
2.02015090820669e-08
7.22033188416969e-09
4.18378571579709e-09
7.44990501198415e-09
1.88392749297359e-08
3.66993024757178e-08
4.87364973956865e-08
4.25263757076126e-08
2.16170789944203e-08
3.54309509776128e-09
9.30949323950328e-10
9.68015509672077e-09
1.65805275175429e-08
1.41864486325349e-08
6.17166923797453e-09
5.7659975995445e-10
6.24945036698274e-10
2.66209618198071e-09
2.15325895367599e-09
1.1940248954251e-10
1.76395264436061e-09
8.44111277355613e-09
1.3914056840672e-08
1.16491853543662e-08
4.07230131691783e-09
3.12564943317019e-12
2.97838540270575e-09
7.09054713774757e-09
5.99735241822927e-09
1.55221184957017e-09
1.63032303376926e-10
3.26504870608166e-09
5.73645736126615e-09
3.76304140310524e-09
4.00372710367007e-10
1.00526377471759e-09
5.42232033048347e-09
8.08086942023348e-09
5.53167562143153e-09
1.02669490561119e-09
5.54665239928494e-10
5.56970865798339e-09
1.08444732078164e-08
1.01423449153743e-08
3.97213925772539e-09
3.35787512078889e-12
3.89014712278081e-09
1.1319650404262e-08
1.29105196320527e-08
6.5993772779069e-09
4.74039307942434e-10
1.73594252126095e-09
7.13771435286157e-09
8.15004963323988e-09
3.29193922261867e-09
5.56550662352616e-14
3.39817473039268e-09
8.47023264900083e-09
7.45112251306988e-09
1.74050513682853e-09
6.75585814498756e-10
8.50222635514937e-09
1.75836826601881e-08
1.72865319465582e-08
7.56123973143481e-09
1.43736589476594e-10
4.78546141574181e-09
1.6582193408402e-08
2.12205782810082e-08
1.30484840362866e-08
2.23912791618841e-09
8.24013768097439e-10
7.28326576810745e-09
1.0813680105695e-08
6.83730900899357e-09
1.21121327121471e-09
3.43459769481276e-10
3.30413881646625e-09
4.88554952291646e-09
2.87779706406531e-09
2.51170696358047e-10
8.7222363517745e-10
4.25941552710343e-09
5.73912660090999e-09
2.79032513647288e-09
6.1434822133836e-14
4.28141004333904e-09
1.42948253195693e-08
1.9197228582675e-08
1.21526851724243e-08
1.65221462072273e-09
2.17909364894558e-09
1.43218869587217e-08
2.29625609119123e-08
1.76207331629557e-08
5.60976521509146e-09
1.90144561368687e-11
2.55549351972694e-09
5.1409831478563e-09
3.21822289110994e-09
2.90349742248333e-10
8.31319067448104e-10
3.89171677808525e-09
4.97100437588991e-09
2.38456867508121e-09
9.78647133838433e-12
2.69484228918346e-09
9.40655219404402e-09
1.32021694877159e-08
9.45624585136827e-09
2.32350642685982e-09
2.60545145942032e-10
5.32301758942199e-09
1.01507440625641e-08
7.70948786539264e-09
1.42909035566751e-09
9.17290659623053e-10
7.93256321153063e-09
1.29823094739029e-08
8.78132111907705e-09
1.24803076890405e-09
1.54675709349181e-09
1.0578107298418e-08
1.77371721676702e-08
1.47215517495168e-08
5.38618150294998e-09
4.86922843743364e-11
3.10627126953141e-09
9.13502567073071e-09
1.04267286530328e-08
5.80386356260733e-09
8.46423291669957e-10
4.44930548473373e-10
3.05675153745142e-09
3.59832144741547e-09
1.08068143258075e-09
2.23298498567724e-10
3.83897635867779e-09
7.13300769403037e-09
4.49569698961453e-09
1.18326468894577e-10
4.21502474599839e-09
1.69345418839975e-08
2.44422575641808e-08
1.68865056937365e-08
3.45714655273827e-09
9.6886260534498e-10
1.15052880426327e-08
2.07797574678783e-08
1.75369659496974e-08
6.38128819434051e-09
3.85153058369972e-11
4.15383195377202e-09
1.20861746060063e-08
1.32767595911533e-08
5.89948138657056e-09
3.11141198391965e-11
5.54794641157168e-09
1.78728520344882e-08
2.20134151410856e-08
1.24472906129637e-08
1.35010685603946e-09
2.28567164928251e-09
1.23126428692274e-08
1.7207911940549e-08
1.07692985899435e-08
1.66941323769553e-09
1.19551873313029e-09
9.43614292720783e-09
1.61301378206633e-08
1.33450312873948e-08
4.56873057283498e-09
6.51842202655094e-15
4.08617413694158e-09
1.07713064470832e-08
1.20328386345581e-08
7.47784491461661e-09
2.55066092319155e-09
4.46047910300185e-10
1.25962019949406e-10
4.87600854411826e-10
1.95456243236923e-09
3.93097607889902e-09
4.04571514679947e-09
1.51444821668817e-09
1.1398541874502e-10
5.64593035596064e-09
1.8761111511186e-08
3.09523857869015e-08
3.09935953346667e-08
1.75522285533178e-08
3.03451787618748e-09
1.12955711339442e-09
1.12007224974132e-08
1.92693392226854e-08
1.52897162585084e-08
4.76550365633387e-09
4.09488170217219e-12
3.74498561988546e-09
7.39311066289184e-09
4.67034571843154e-09
3.05755220953819e-10
1.93762260744358e-09
7.97397863234326e-09
9.57533137270206e-09
4.08276407594789e-09
1.15827189470189e-12
5.27845946192261e-09
1.51423460863567e-08
1.73609792150609e-08
8.60717541366497e-09
2.59090101574544e-10
5.80489840063551e-09
2.47057078860229e-08
4.13487662009184e-08
4.06706737088592e-08
2.37214934018752e-08
5.90853191252646e-09
1.7740290961918e-11
4.08478389777787e-09
7.54617032119006e-09
5.39526639187922e-09
1.53683903900115e-09
6.78009393163665e-11
1.12459391949643e-11
1.35510232222059e-09
1.10528199215685e-08
3.60731705862061e-08
7.00286125285603e-08
9.28627685115877e-08
8.86325909246473e-08
6.16500441467886e-08
3.10762056147436e-08
1.14846612122513e-08
3.53065818422427e-09
1.21595997112948e-09
3.12795326890531e-10
2.87573601600632e-10
7.96858813404313e-09
4.17111102426758e-08
1.2244255936097e-07
2.54043275377933e-07
4.13008397770513e-07
5.55075777975909e-07
6.28955947187369e-07
5.93273289919931e-07
4.42230092766198e-07
2.28884315255857e-07
5.29246569987188e-08
2.00090749388654e-09
9.43469316316472e-08
2.81007142284492e-07
4.98328721732473e-07
7.09023030106082e-07
8.97855239558485e-07
1.0418044474923e-06
1.09285665234578e-06
9.97587430637068e-07
7.46339681444685e-07
4.09559962116888e-07
1.19180955312032e-07
1.67547415666307e-10
9.97850158021313e-08
3.59871202595108e-07
6.46054995308786e-07
8.18221611182196e-07
8.04890191340912e-07
6.35298257211644e-07
4.06274992242608e-07
2.11525137040862e-07
9.15269786157693e-08
3.54932759523868e-08
1.4554745081734e-08
7.14397105251476e-09
3.08317255215316e-09
1.05690831505536e-10
4.05417702491487e-09
2.64497092339061e-08
7.17358791491808e-08
1.24171204411244e-07
1.53175557050306e-07
1.37957907541115e-07
8.76760024767756e-08
3.44729675048885e-08
5.04247424546664e-09
2.74071683430521e-10
3.16429235502122e-09
2.07081914349285e-09
3.83877223869282e-13
2.54117296400144e-09
6.38242626563538e-09
5.15853592928265e-09
7.62129259883081e-10
1.28999817821951e-09
8.88382960547646e-09
1.56687818701753e-08
1.36807404641384e-08
5.2481109363041e-09
6.17991898949985e-11
2.79548881196437e-09
7.52309854971391e-09
6.40446074030225e-09
1.1409622316511e-09
1.29414951410315e-09
1.07112812638068e-08
2.03678999533804e-08
1.88867679258602e-08
7.77255726442827e-09
1.53893856682532e-10
3.8777681994988e-09
1.19412075704533e-08
1.28249440783715e-08
5.65474351519166e-09
1.23950277285822e-10
2.95782550010066e-09
9.42508244393506e-09
1.02838523438376e-08
4.37560462189698e-09
2.63784811693175e-11
3.36510790253681e-09
9.91622385799791e-09
1.11617227305863e-08
5.99241550164462e-09
8.66741555926834e-10
3.09790343073544e-10
2.08549118035749e-09
2.09287057733466e-09
4.11706544470419e-10
3.27752952259081e-10
2.59761799522915e-09
3.6762704737783e-09
1.4228871995149e-09
1.81432126417943e-10
5.62838557138283e-09
1.4919800882366e-08
1.79188476056346e-08
1.0466329407726e-08
1.29282943174496e-09
1.9591727632872e-09
1.27706556424259e-08
2.21050758043874e-08
1.94048254520908e-08
7.36660270604106e-09
9.18667410578573e-12
6.8939686001673e-09
2.02491005266168e-08
2.3066993318075e-08
1.13439609791571e-08
5.05619606036233e-10
4.65171136460193e-09
1.72223788704971e-08
2.07354615570486e-08
1.07787121391403e-08
7.57252210863415e-10
3.1613284854898e-09
1.38426220215473e-08
1.85123210647068e-08
1.13195674749657e-08
1.63556234362393e-09
1.42913097596998e-09
1.02031379709241e-08
1.64496605352193e-08
1.25404178877073e-08
3.59752581181039e-09
5.92922458777177e-11
4.30072637510772e-09
8.39585857770231e-09
5.73249343161469e-09
6.00195274520749e-10
1.60699568632902e-09
8.00446050885434e-09
1.01738242302283e-08
4.57697910840863e-09
5.35474074177194e-12
4.82397693787542e-09
1.44599290645491e-08
1.74990425451378e-08
1.07040429630564e-08
2.14273485253233e-09
3.43250417188918e-10
4.91338815896542e-09
8.74451168827388e-09
6.87684204279606e-09
1.79689956873343e-09
2.11653582521594e-10
4.4983847400795e-09
8.58215031368451e-09
5.78192893234882e-09
3.36765802293634e-10
3.62154445431393e-09
1.61822719208529e-08
2.34209348859797e-08
1.56658945314025e-08
2.92854501327116e-09
1.04615648370479e-09
1.04906652896544e-08
1.77577376162667e-08
1.38896913680139e-08
4.22382785194651e-09
2.88815145317887e-11
4.70999696174407e-09
1.05601720080446e-08
9.1019097663599e-09
2.3876360711289e-09
3.84808118706689e-10
7.04270014482296e-09
1.4265785650252e-08
1.27900471806681e-08
4.65722018046666e-09
6.20833732233002e-12
3.58110521259772e-09
9.38442351161688e-09
9.33686012912066e-09
3.70735339046199e-09
2.16783112081764e-11
2.39732595024817e-09
5.99715236461415e-09
4.64549798782201e-09
5.84567575924789e-10
1.3521216668513e-09
8.075920721974e-09
1.28482438048776e-08
9.30809181797009e-09
1.80709712910153e-09
1.08156110167066e-09
1.12386572721137e-08
2.29279226923113e-08
2.24928583380904e-08
9.45347698507952e-09
6.83434728491358e-11
7.2720848450755e-09
2.16309214448263e-08
2.31098872203131e-08
9.59189165603758e-09
4.44159375181787e-11
7.39868920568254e-09
2.12776616925924e-08
2.35281906851985e-08
1.19639016926289e-08
1.03068761972568e-09
2.61897635953551e-09
1.30478654508844e-08
1.96144547798738e-08
1.56776792434773e-08
6.34264177480053e-09
5.0743484570591e-10
5.9442102098593e-10
1.94451675024326e-09
9.22606023395908e-10
9.18082320952098e-11
3.24627579634954e-09
7.73944869197635e-09
6.91834053948608e-09
1.32847147072218e-09
1.67230335053446e-09
1.51579256039994e-08
3.23255152026071e-08
3.54458840073646e-08
2.05751035386042e-08
3.62514372289628e-09
1.0545125647186e-09
1.0635341232186e-08
1.67837345384845e-08
1.12534421037949e-08
1.95640009697751e-09
1.04179247412103e-09
9.13398409374664e-09
1.49828140339916e-08
1.03614541442325e-08
1.56809324338983e-09
1.78170526408157e-09
1.27462062345228e-08
2.10708126512654e-08
1.61490161646445e-08
4.58388550558867e-09
5.11889949425546e-11
4.47048793294458e-09
7.98812911374429e-09
4.82311917209596e-09
3.4298509099997e-10
1.75923048417617e-09
7.97928305926035e-09
1.14714957989401e-08
7.91501555757663e-09
1.61870712206389e-09
5.38333584205475e-10
6.23476511131109e-09
1.11197805068331e-08
8.22054760267949e-09
1.4912747908344e-09
9.35838009570298e-10
7.74511029481603e-09
1.15789862966704e-08
5.96416274581329e-09
1.41892601695893e-11
7.9700037505836e-09
2.90781530204275e-08
4.50466302947482e-08
4.0136483078548e-08
1.94063857093725e-08
2.52941849928485e-09
1.36462092366956e-09
9.04791427083754e-09
1.19294747937816e-08
6.62630980305435e-09
8.80718853448444e-10
3.54367163357935e-10
1.41120742685508e-09
1.04338910589242e-10
3.94983011872727e-09
2.67802520122858e-08
6.88477519652822e-08
1.07844282219778e-07
1.17105124470618e-07
9.20983710795819e-08
5.31177247891683e-08
2.27163776634354e-08
7.58353613558079e-09
2.14681012221822e-09
2.72255892045238e-10
6.54060194258379e-10
1.02266277762626e-08
4.76895741251537e-08
1.36267120130106e-07
2.84180892418927e-07
4.68915931965976e-07
6.37739476132551e-07
7.23461282356042e-07
6.73167558575807e-07
4.86027790073311e-07
2.36220220618762e-07
4.52815620285481e-08
6.6761711530753e-09
1.26384004786475e-07
3.37484573301137e-07
5.65895667678437e-07
7.75384025967517e-07
9.58869783881216e-07
1.1016559960596e-06
1.15753990451034e-06
1.06501421659645e-06
8.02181681023081e-07
4.3725843162054e-07
1.19143963490931e-07
3.00705059543627e-10
1.44243079905403e-07
4.79991026432971e-07
8.31823719079937e-07
1.01335922468899e-06
9.37580843852449e-07
6.67260598606476e-07
3.5784502982321e-07
1.3777028866471e-07
3.54713492650641e-08
6.19553096087366e-09
1.65143720726576e-09
2.23800522676766e-09
3.71765324411637e-09
2.37421391101717e-09
3.93090272955017e-11
1.01631446672743e-08
4.60087778687854e-08
1.0074304978751e-07
1.4449864386993e-07
1.47093139917743e-07
1.05827069959578e-07
4.89861541028342e-08
1.01400394457825e-08
1.39205299242531e-11
4.40011484596289e-09
5.95163156544184e-09
2.01055994939224e-09
4.59654349671065e-11
2.26946143651207e-09
2.80882693202204e-09
1.95760676947136e-10
3.25845766388929e-09
1.68937911371224e-08
2.84075750490084e-08
2.17253576946353e-08
4.25717529560095e-09
2.74169045104624e-09
2.66737802771488e-08
5.16040722443342e-08
4.92224348261987e-08
2.28741092436455e-08
1.6727411051037e-09
5.40661537965587e-09
2.53783951497241e-08
3.84055771478724e-08
3.22040182263418e-08
1.47387889966893e-08
2.01188997268934e-09
5.27513385249711e-10
3.52172494475474e-09
2.91411599656405e-09
1.73935510102935e-10
1.76798224268591e-09
7.079813893557e-09
8.16943484345025e-09
2.80800813853973e-09
2.83905689906483e-10
8.64919526606516e-09
2.10165167800355e-08
2.26880156137125e-08
1.12024200127951e-08
7.28961268364674e-10
3.03035276233436e-09
1.1552100033474e-08
1.19930885968562e-08
3.79976777916997e-09
2.06953141651003e-10
7.21873821227964e-09
1.41242379621536e-08
9.93437760851548e-09
1.01565935416829e-09
3.76806198151134e-09
2.14672640421234e-08
3.65836618897699e-08
3.11264455222706e-08
1.07518775134675e-08
1.51612449849611e-11
1.21154589548169e-08
3.21013184239596e-08
3.58726162096829e-08
1.95897089530715e-08
2.49692789011612e-09
2.39586812580599e-09
1.51208599067977e-08
2.15351415922319e-08
1.26247759054332e-08
1.12800426012976e-09
3.3086976956031e-09
1.50403097481863e-08
1.78632398883635e-08
7.34889415399104e-09
1.57812430286147e-14
7.48603776195836e-09
1.859118383927e-08
1.64644258882795e-08
4.18543038878034e-09
9.54167571979564e-10
1.52282122196878e-08
3.21695645737614e-08
3.1728302868752e-08
1.39920362530581e-08
3.16239747190935e-10
8.44384795885507e-09
3.08505112981565e-08
4.25584613103875e-08
3.03434045283936e-08
8.34426163382577e-09
1.46862129108204e-10
9.76585412186819e-09
1.91786893273727e-08
1.43757939195485e-08
3.05628278145815e-09
6.23596446575437e-10
7.2400595585416e-09
9.74957376151068e-09
3.58111236647428e-09
2.29846026352264e-10
8.90570034060322e-09
2.06518356798727e-08
1.98012126064032e-08
6.92003404427647e-09
1.1042858805377e-10
1.18355338612405e-08
3.18590052628258e-08
3.84781580240506e-08
2.41665172218635e-08
4.72289418359201e-09
1.38646289467564e-09
1.67757621638584e-08
3.21377202831738e-08
2.92013833307742e-08
1.16147584581916e-08
1.56434790589596e-10
6.3616167276885e-09
1.79065590891927e-08
1.65541474647076e-08
4.5274737714902e-09
5.5454686106787e-10
1.09438254370764e-08
2.00235972617888e-08
1.4262667610698e-08
2.36208295705788e-09
1.72059218386586e-09
1.32504208261956e-08
2.08335989739956e-08
1.40762909368228e-08
2.26574316029069e-09
1.88157568294092e-09
1.49234414850945e-08
2.5914319599698e-08
2.12989599032142e-08
6.72524488875274e-09
6.99800593938925e-11
8.63567619277849e-09
2.0020314334786e-08
1.89489255684651e-08
7.31465857997323e-09
6.6263388364887e-11
3.84760183672879e-09
9.22967017512406e-09
6.31936844283214e-09
2.88716891271919e-10
4.85227878725406e-09
2.21932084621728e-08
3.6220897609438e-08
3.06444713289489e-08
1.09445736220104e-08
1.94577952370333e-12
9.89087122955599e-09
2.70616540322597e-08
3.08921960764036e-08
1.87102237614902e-08
4.77403930391604e-09
3.86708335329878e-12
1.50214253904314e-09
1.51467054193458e-09
6.43531942736385e-16
3.76146892763256e-09
1.40816392764826e-08
2.09895009380472e-08
1.51388042437084e-08
2.92728928118857e-09
1.7893506803686e-09
1.81446093150363e-08
3.66544974088378e-08
3.70251470255688e-08
1.8627341275139e-08
1.80489801174099e-09
3.23372503328812e-09
1.59644952092673e-08
1.9949895125801e-08
9.43326718770674e-09
1.47097749601752e-10
6.37674301940757e-09
2.03452301771387e-08
2.32065155148711e-08
1.1393719304923e-08
6.47880306840684e-10
3.47705232784213e-09
1.31451754600385e-08
1.50402771338321e-08
6.86096318223155e-09
1.52220510407247e-10
3.83200762018644e-09
1.26653750324192e-08
1.44568385554975e-08
6.30260280599887e-09
5.69728836246895e-14
8.68126380000749e-09
2.87283319124929e-08
4.00360886378978e-08
2.88434259671295e-08
7.14675925623267e-09
8.35375011820603e-10
1.72204640058528e-08
3.45480206802244e-08
3.0379244013302e-08
1.08769903441238e-08
4.54043730439874e-11
6.08608596445321e-09
1.38322204880843e-08
1.01472323503882e-08
1.60548011385509e-09
1.22276318684755e-09
8.34816351249826e-09
1.11449800281368e-08
5.1293528298106e-09
5.90168395107637e-12
5.68479100382252e-09
1.71677558016019e-08
1.96047617598785e-08
8.65946094579687e-09
4.17874142341856e-14
1.23322141245848e-08
4.16501688076112e-08
6.04854631687678e-08
4.85516802888102e-08
1.82615432606069e-08
3.94650078474432e-10
7.41341748297091e-09
2.23969677834719e-08
2.44654160832768e-08
1.30897862256837e-08
2.39051591731293e-09
6.48574756374651e-11
8.21636164162418e-10
2.0145562986928e-12
6.06197320343567e-09
3.16356855077298e-08
7.14711922685856e-08
9.83643747402814e-08
8.93561132497389e-08
5.19776000835472e-08
1.58971330255777e-08
7.90005050756224e-10
1.29307372479796e-09
2.83258211456765e-09
1.11093890555594e-09
2.86701298052615e-11
4.73909532076961e-11
4.71372519279356e-09
4.02068914265279e-08
1.48357719539194e-07
3.40094861498744e-07
5.57936008668431e-07
7.00380350581623e-07
6.92298482974878e-07
5.35939352704469e-07
3.05216894985908e-07
1.00893660638475e-07
3.05545802596687e-09
4.32566958842703e-08
2.03071492027445e-07
4.35681281088058e-07
6.94736504397306e-07
9.4865759262301e-07
1.17018521226914e-06
1.31315783046732e-06
1.30583160615346e-06
1.08829191236152e-06
6.85815587621493e-07
2.52460201505098e-07
1.02894195464044e-08
9.93920045485581e-08
4.6177055573404e-07
8.72494151942204e-07
1.09758617601181e-06
1.04342654094961e-06
7.84227516620308e-07
4.73005005355097e-07
2.2996710432747e-07
9.17903643730074e-08
3.28886996186356e-08
1.33884168737911e-08
7.63394403698352e-09
4.44692710334692e-09
6.56135707309133e-10
2.50898023499999e-09
2.38975264334374e-08
7.00545181914185e-08
1.22665911412081e-07
1.49714081015275e-07
1.33424128238706e-07
8.59993632988474e-08
3.73209434031175e-08
9.01975632442392e-09
7.49927505629737e-10
7.04641735544002e-11
1.39814131670077e-09
8.74113210599913e-09
2.03834780139582e-08
2.33184888733981e-08
1.14661372594579e-08
1.86232889034307e-10
9.81737936896868e-09
3.75824584527763e-08
5.73973148100834e-08
4.96588855631524e-08
2.32816329331069e-08
3.17706013172723e-09
9.0912877751193e-10
5.91173128639328e-09
5.01586183864964e-09
4.1329937429058e-10
2.43478707386243e-09
1.14181010058077e-08
1.60583228745571e-08
9.55589727817304e-09
6.7393227398781e-10
4.58528028887638e-09
2.36046263782781e-08
4.09994305549201e-08
3.81040371717306e-08
1.71738813021364e-08
8.91958141255757e-10
5.43865942682401e-09
2.05313912096509e-08
2.41141034694729e-08
1.19732130872785e-08
8.26536696528164e-10
2.53137256498155e-09
8.75851014807021e-09
6.89379028363362e-09
5.32704821416211e-10
3.88463545069491e-09
1.95283096103862e-08
3.18888407602948e-08
2.61171590465682e-08
8.24576469430324e-09
1.7205707624664e-10
1.37833888371325e-08
3.55623960056349e-08
4.18597793616014e-08
2.65341859493972e-08
6.5344836831438e-09
1.35135625237682e-10
6.96667310221556e-09
1.28276319225874e-08
9.09337502561933e-09
1.65437002653889e-09
7.37666364377951e-10
6.27665433688134e-09
8.37371738008569e-09
3.07845426290671e-09
2.44170034712693e-10
8.10336294690325e-09
1.71739079960684e-08
1.34050880184655e-08
2.2831935318585e-09
1.93893444041238e-09
1.44421919146715e-08
2.24329221239915e-08
1.51110605948811e-08
2.59731301691842e-09
1.7565406969145e-09
1.64465981706518e-08
3.36599400307514e-08
3.5932257004365e-08
1.94494418292719e-08
1.79894412967569e-09
5.48109932935358e-09
2.90282958477168e-08
4.41345525448387e-08
3.12110275498208e-08
6.9548543452698e-09
9.50722868664623e-10
1.39850594370308e-08
2.05918215297929e-08
9.76426587084929e-09
3.90035407954121e-11
8.71183021370587e-09
2.49940359318281e-08
2.6123737026961e-08
1.0329136713964e-08
8.77483075061937e-13
1.21840972833593e-08
3.57397038596648e-08
4.42787188425312e-08
2.83818069154641e-08
6.33858884841691e-09
5.68582356483799e-10
1.13206334316343e-08
2.02706195290191e-08
1.53839614141088e-08
3.90599248679496e-09
2.92691412383728e-10
7.03278138725721e-09
1.22586395704081e-08
7.08086132518344e-09
1.18689445352002e-10
6.73826920614445e-09
2.45935398725926e-08
3.24040203798883e-08
1.90569136440098e-08
1.91157390047029e-09
4.75316558555472e-09
2.52443070395395e-08
3.77567080533793e-08
2.6994135248375e-08
6.66858321243674e-09
5.24268133399606e-10
1.26230945442227e-08
2.44888596693803e-08
2.02190817938782e-08
6.04175138289488e-09
1.08128233063558e-10
7.62994451170008e-09
1.52341275698435e-08
1.12383990796715e-08
2.00437376244906e-09
1.07318629558674e-09
8.72126603605101e-09
1.26413323948876e-08
6.9246092932932e-09
3.29100813002774e-10
3.31604286262959e-09
1.33991077615074e-08
1.80985279473618e-08
1.1056996853959e-08
1.2256467239187e-09
2.87790426629086e-09
1.68832565056062e-08
2.70875704462343e-08
1.98843714586237e-08
3.95652082455932e-09
2.07008523955021e-09
2.16355774800316e-08
4.20914976918245e-08
3.89098995310624e-08
1.5437530412641e-08
1.17098838314816e-10
1.0653402739596e-08
3.16137892855329e-08
3.53322736037638e-08
1.78025759734359e-08
1.47933732878815e-09
3.37327209513153e-09
1.40719145526219e-08
1.48011643105591e-08
4.79279758180855e-09
2.45763480338319e-10
9.94476935000172e-09
2.31424473068457e-08
2.3861742276246e-08
1.10251368034287e-08
3.21398308496397e-10
6.50422764573805e-09
2.55025041441453e-08
3.71516318048767e-08
2.81715426812327e-08
8.73333613876844e-09
1.41598751381685e-11
8.02598108292769e-09
1.86160483481279e-08
1.79643490401626e-08
8.42187906125504e-09
1.08701838062097e-09
2.40210506970393e-10
1.14108924616004e-09
2.76580209729411e-10
5.8467170698283e-10
4.08526004839241e-09
5.62471989108336e-09
1.5922806536276e-09
1.52391502077364e-09
1.91168799352705e-08
4.90678036223237e-08
6.48267035568866e-08
4.82135381090868e-08
1.48411391156983e-08
1.41660130552969e-10
2.04765736779455e-08
5.48148258442784e-08
6.73839570889626e-08
4.56382491527761e-08
1.2541409085364e-08
1.42671944378694e-10
1.36308045914985e-08
2.78151378026135e-08
2.12286929570901e-08
4.06936449724801e-09
2.06919120463198e-09
1.93374018449305e-08
3.30615695869012e-08
2.55995557026254e-08
7.15840014074589e-09
2.18254463378299e-10
1.04265544796605e-08
2.18111246692869e-08
1.90170486011593e-08
6.36028227316472e-09
2.49428952372791e-12
5.17531651606992e-09
1.03201712620082e-08
5.96804479609718e-09
5.43723197804956e-11
6.67768993447265e-09
2.45010420490261e-08
3.57172633571518e-08
2.75870702929753e-08
8.84303047233642e-09
1.38069787831087e-11
8.79914900064183e-09
2.07690513473634e-08
1.84553820046123e-08
5.20198795804644e-09
4.50665291524247e-10
1.0891952415146e-08
1.93844504707029e-08
1.12252646187871e-08
1.43778749786134e-10
1.22688650523763e-08
4.84330500630905e-08
7.94707105022542e-08
8.08612423884544e-08
5.78863466091907e-08
3.24925236923729e-08
1.80981878410903e-08
1.4950614717288e-08
2.04058422555293e-08
3.13832062541868e-08
3.8028704599106e-08
2.74056607789938e-08
4.5456301503186e-09
1.06742775264074e-08
1.08602437136259e-07
3.30708317382541e-07
6.2834255701778e-07
8.77422701515034e-07
9.52574458150124e-07
8.14275194628547e-07
5.34730348456989e-07
2.4470100408368e-07
5.29722706038804e-08
9.04540189620684e-10
7.09554042091627e-08
2.2458472059216e-07
4.34997938283299e-07
6.95013556903003e-07
9.97587973229924e-07
1.29939324113017e-06
1.49565979850224e-06
1.4520462776168e-06
1.10929782723994e-06
5.83436264415143e-07
1.37071749312004e-07
4.09823945775756e-09
2.15740275430473e-07
5.89700041143741e-07
8.80366805806222e-07
9.44835582714502e-07
7.98367961767228e-07
5.53759432871986e-07
3.24521010478455e-07
1.67023407126569e-07
8.10898664968484e-08
4.12953304635529e-08
2.34172780083311e-08
1.28568467331079e-08
3.96387540740694e-09
1.19647600530799e-10
1.13376327042479e-08
4.29143554290157e-08
8.27581616601123e-08
1.04889971966853e-07
9.18504834346866e-08
5.33624890045381e-08
1.74285013007644e-08
1.7324301210745e-09
4.61867864549286e-11
1.54529454162589e-11
4.42025080402623e-09
2.28755193204772e-08
4.78250314926704e-08
5.5788572040954e-08
3.65635290405985e-08
9.07069733500473e-09
4.84349131681576e-10
1.54810322142488e-08
3.32149524359824e-08
3.30261222182818e-08
1.66904143326675e-08
2.35530002577464e-09
7.4765726754462e-10
4.71036733604051e-09
3.57916389554786e-09
2.98985251215089e-11
5.16580449985043e-09
1.9745571466286e-08
2.95088398831963e-08
2.2713318438122e-08
6.689399579072e-09
1.52650734511934e-10
9.78440166977218e-09
2.16071955336079e-08
1.95092667790334e-08
6.61301235848565e-09
1.18014276264263e-11
6.27444203946511e-09
1.30996136439979e-08
8.97104696011381e-09
8.11401333324937e-10
3.24224077052945e-09
1.61760519603621e-08
2.38243722527582e-08
1.60297822629064e-08
2.61445023062393e-09
2.40867087460803e-09
2.02864172227337e-08
3.92107743760965e-08
3.81198908848578e-08
1.72752525602562e-08
5.95414323241149e-10
8.49784088554728e-09
3.23956168466895e-08
4.41069148656512e-08
3.02393805287412e-08
7.67301792139365e-09
2.09514916709407e-10
8.68834340346806e-09
1.46360475292499e-08
8.64693981249727e-09
8.0406452895279e-10
1.56346320612909e-09
6.13183627811538e-09
4.86803223009721e-09
2.5119733536866e-10
4.04881908490833e-09
1.91713973286885e-08
3.17371993025139e-08
2.64554351642206e-08
8.32817868694634e-09
2.06844300164897e-10
1.36514446764525e-08
3.17921460764725e-08
3.15642476487869e-08
1.43409671629897e-08
9.99594924845409e-10
2.63174501451569e-09
1.0042019663389e-08
1.03495724804947e-08
3.44872339540043e-09
1.82761574131928e-10
8.44484765006969e-09
2.2570629286946e-08
2.74736733742841e-08
1.62185434175361e-08
1.81204377384629e-09
3.83391929399596e-09
2.21636497751871e-08
3.4483474514836e-08
2.53348752589077e-08
6.74885978475687e-09
1.31671248082453e-10
6.62858075991662e-09
9.67441914670065e-09
3.17038303319523e-09
6.37086092374455e-10
1.20629629599453e-08
2.54411258239096e-08
2.26585461283505e-08
6.87213763898332e-09
4.14337918140949e-10
1.51952558814036e-08
3.66268735546975e-08
4.15711480079863e-08
2.53143353479358e-08
5.32549161140837e-09
7.17383784016915e-10
1.17789393805242e-08
2.1164598262343e-08
1.55516649109063e-08
2.86913230516811e-09
1.65382710940198e-09
1.44289879553713e-08
2.30449477768281e-08
1.48606844550924e-08
1.72991986558002e-09
3.38677242993062e-09
1.95580500705998e-08
3.01938992959342e-08
2.21414261990184e-08
5.67804565448243e-09
3.69868978647616e-10
1.01882500560409e-08
1.99580679334702e-08
1.61302013494463e-08
4.12888844231914e-09
5.75182418741111e-10
1.11529070298638e-08
2.24600311748452e-08
1.90331141367295e-08
5.00042654779528e-09
8.90526446629793e-10
1.61224842000869e-08
3.34358457569446e-08
3.03623083502966e-08
1.06434508011424e-08
8.71773569590163e-12
1.04448554251206e-08
2.42055859811407e-08
2.04837483444346e-08
5.13712901111753e-09
8.15296163078363e-10
1.36327069399385e-08
2.48776259413133e-08
1.81312526295304e-08
2.93707812491255e-09
3.25882562847666e-09
2.64084604075232e-08
5.17197159659377e-08
5.29370904833082e-08
2.8318468895767e-08
3.60510494338325e-09
3.8258321225425e-09
2.56047106088587e-08
4.1735878829627e-08
3.31465523776155e-08
1.07579303688724e-08
7.60306347848296e-13
7.01892234509308e-09
1.27745560114769e-08
5.22024201981691e-09
4.66453428492685e-10
1.57478282641037e-08
3.59278933055775e-08
3.27327625031274e-08
9.90661187071305e-09
5.14014739346361e-10
1.89602644657114e-08
4.13305044256747e-08
3.97114078315408e-08
1.74201249864273e-08
7.88157579046082e-10
5.94516718111745e-09
2.27949691159919e-08
2.96826940449878e-08
1.85377314105181e-08
3.0792633547974e-09
1.78758046523789e-09
1.5277808097738e-08
2.58057257870626e-08
2.02457331333988e-08
6.25953609186328e-09
2.80456938689241e-13
3.84874255545943e-09
6.18880702954609e-09
1.79943668664165e-09
1.05574287585104e-09
1.31475867629595e-08
2.79784295881895e-08
2.64161898905984e-08
8.77209910803385e-09
4.32761694157029e-10
2.04079741267342e-08
5.26738923397995e-08
6.25041675595793e-08
3.93645121640663e-08
9.18531383083898e-09
3.35229403006191e-10
1.0486741417115e-08
1.65935726688951e-08
8.79018964423251e-09
2.89918132642588e-10
4.53387156752902e-09
1.55918670006641e-08
1.76812934455727e-08
7.63891571700013e-09
4.74835774234841e-12
9.1349389473699e-09
3.02137521265253e-08
4.20759008324392e-08
3.09610302929129e-08
8.63799719246671e-09
2.99575652925514e-10
1.35462078286008e-08
2.83150614460092e-08
2.36432283473274e-08
6.19862788391201e-09
7.79988298885342e-10
1.58355896521464e-08
3.21644151185507e-08
2.93984542897943e-08
1.20375228276962e-08
4.74652117686454e-10
3.20920061870319e-09
9.2587242665549e-09
7.14138427104172e-09
8.82028410578996e-10
1.83518679401579e-09
9.87182015413064e-09
1.19792384330358e-08
3.3420285294352e-09
2.30571842057072e-09
3.16915790356707e-08
8.41241046300451e-08
1.20287764337207e-07
1.10221542884213e-07
6.60480049681887e-08
2.41584270155844e-08
4.59374329498665e-09
5.79893458672826e-10
1.0156569734587e-09
5.40290315727252e-09
1.27938307345885e-08
1.21071351703028e-08
1.17162213234079e-09
1.47955736799555e-08
1.14152816938776e-07
3.28189170982421e-07
6.01919889490062e-07
8.12984215135858e-07
8.5151552201601e-07
6.95852153242653e-07
4.24755922390537e-07
1.64822306834959e-07
1.7879311422233e-08
1.7179941828544e-08
1.33549789704843e-07
3.16448975275936e-07
5.32822177210804e-07
7.74934467069654e-07
1.035054530722e-06
1.26669680862091e-06
1.36870290533979e-06
1.23285046156843e-06
8.47832496407574e-07
3.66909762729267e-07
4.15677749853507e-08
4.91083282336019e-08
3.60922370551702e-07
7.65460277164777e-07
1.0194985807294e-06
1.00287205794823e-06
7.67290427621828e-07
4.63395835063048e-07
2.22040765294893e-07
8.68453740121049e-08
3.13878359596015e-08
1.39059170699228e-08
8.86635013297703e-09
5.39206624794552e-09
8.16715436846926e-10
2.59248353654622e-09
2.41481952519194e-08
6.75857513370612e-08
1.1229233151075e-07
1.28296190414542e-07
1.03728479053572e-07
5.66300815076188e-08
1.75052717862744e-08
1.47379375782403e-09
2.23782216972439e-10
2.03464129645841e-10
1.07240400065918e-09
9.89199932768562e-09
2.27496326217487e-08
2.49270985290731e-08
1.20545236020825e-08
3.39003589410872e-10
7.48593642527752e-09
2.86339804163592e-08
4.07047602152383e-08
3.05207875839644e-08
1.00761921682792e-08
6.04624744653836e-11
4.70813804235456e-09
1.02930037250506e-08
6.40597384041927e-09
1.89008526383021e-10
5.06078918394546e-09
1.96528446053649e-08
2.65286206957512e-08
1.5528823340121e-08
1.16700331519992e-09
6.03209762581663e-09
2.85609659604308e-08
4.1535892737626e-08
2.7929568735752e-08
5.11675550426111e-09
2.31413549835426e-09
2.21427861711788e-08
3.83924076065754e-08
3.0741079053497e-08
9.39271393312975e-09
1.04241601523473e-10
1.18096132741982e-08
2.74063242672009e-08
2.65541738965261e-08
1.07392866426341e-08
9.9300122886312e-11
6.97396912097148e-09
2.02048235757985e-08
2.07199753916274e-08
7.79038116471004e-09
1.24463029445593e-11
9.23464731166032e-09
2.36949331403702e-08
2.40852347920311e-08
1.00078386340125e-08
1.04491470078582e-10
6.34244089166867e-09
1.83898871940814e-08
1.89053951668666e-08
7.45129156171561e-09
1.16402831788662e-11
6.10207050694833e-09
1.58457935615938e-08
1.43860970430472e-08
3.59632669005386e-09
1.16297821222865e-09
1.64633156868749e-08
3.47678780931073e-08
3.39077143867141e-08
1.42673890313662e-08
2.25943531543611e-10
8.1893110606853e-09
2.50833231659923e-08
2.73536629351693e-08
1.26266537424576e-08
5.15661789375502e-10
4.547360453797e-09
1.50759737186737e-08
1.48050474064672e-08
4.0750401945716e-09
8.68827462627648e-10
1.52233568469339e-08
3.33548422675133e-08
3.41587362281601e-08
1.6459253276952e-08
1.03779566687063e-09
4.95007468567996e-09
2.06021513932076e-08
2.58538683441202e-08
1.32632357313159e-08
5.66039644350436e-10
5.86471502539657e-09
2.05728328456169e-08
2.15325641500902e-08
6.86327687457024e-09
5.59044853465832e-10
1.72124958238111e-08
3.98944348233241e-08
4.26490882794815e-08
2.33051644315916e-08
3.5398198829908e-09
1.69235018157632e-09
1.38231417086667e-08
2.16081883210972e-08
1.47512274497974e-08
2.58342093728718e-09
1.49117374250522e-09
1.2476776287039e-08
1.87818098676321e-08
1.01172446181507e-08
1.73717392659197e-10
8.5291341060626e-09
3.03972123269482e-08
3.9834883960975e-08
2.45969212127703e-08
3.71214952402765e-09
2.86476317832926e-09
2.11733788383429e-08
3.33660492790921e-08
2.33007982768892e-08
4.5118641710946e-09
1.81015819653832e-09
1.88196613792158e-08
3.36425859181474e-08
2.74280349448516e-08
8.30730495931784e-09
1.5377326839327e-10
1.14903203057835e-08
2.53041689862568e-08
2.26543999524144e-08
7.6470934989496e-09
1.03884748971565e-11
7.16821767631337e-09
1.5594978903298e-08
1.18199772601115e-08
1.82168313644599e-09
2.34206425944164e-09
1.70425294938474e-08
2.97262952613012e-08
2.44027532171006e-08
7.1863758790694e-09
3.36009092445287e-10
1.35717940335092e-08
3.01817203833801e-08
2.85431324523904e-08
1.10019404597681e-08
5.74057969731379e-11
7.01826540032563e-09
1.75772954984709e-08
1.44091076559554e-08
2.82053254364189e-09
1.48208677359486e-09
1.32850693860251e-08
2.09556445202541e-08
1.31485203754688e-08
1.32599645667422e-09
3.70145630192213e-09
2.01688438099503e-08
3.18295825762556e-08
2.45377187238936e-08
6.80936667573308e-09
4.3491563600003e-10
1.44157122318312e-08
3.31288309034017e-08
3.42537989341268e-08
1.61910826472013e-08
7.93328026524983e-10
5.81655108445566e-09
2.13333152852992e-08
2.32809150167498e-08
8.37288172578821e-09
1.74200305003386e-10
1.38365830874606e-08
3.10576893873356e-08
2.61385307140211e-08
5.87743500626348e-09
2.28431799409194e-09
2.76053386116016e-08
5.6100143411035e-08
5.63809890589076e-08
2.91398209999344e-08
3.73396241482651e-09
3.07874404433449e-09
2.0829973702254e-08
3.31908396550583e-08
2.66312027509312e-08
9.88509441348083e-09
2.76447976279935e-10
2.91548492426389e-09
7.45945001291007e-09
4.82271758113516e-09
1.4881221411215e-10
3.52596099972471e-09
1.27391233167685e-08
1.51295225620946e-08
6.72541187862302e-09
6.31486418817293e-12
7.62828184858038e-09
2.37063080887855e-08
2.89717520954003e-08
1.57947148142484e-08
1.03988927637774e-09
6.12574080073516e-09
2.72687742977266e-08
3.79739860621491e-08
2.41735227745721e-08
3.81584410923874e-09
2.59155989865353e-09
1.99514005740796e-08
3.16528862546417e-08
2.26680732623844e-08
5.28370431682356e-09
5.60538727384235e-10
9.87364780110904e-09
1.49532942309893e-08
6.40799280501702e-09
1.93197489842287e-10
1.54651356725458e-08
4.32848085660979e-08
5.35836881726409e-08
3.40764986455193e-08
6.9989211233432e-09
1.39097000167996e-09
1.99251816667395e-08
4.04412193620719e-08
4.30911855938107e-08
2.84668236304996e-08
1.13203730081683e-08
2.51127038472492e-09
8.34545370801694e-10
3.77685171683671e-09
2.17128165638224e-08
6.94122917941797e-08
1.36451208453834e-07
1.7719575702854e-07
1.49281480310867e-07
6.68952578944225e-08
3.47113869817799e-09
2.8931030965473e-08
1.43279417546837e-07
2.77595722413522e-07
3.60120870257845e-07
3.74487767041784e-07
3.5568736377498e-07
3.46770537251229e-07
3.67635968419004e-07
4.05192759538536e-07
4.13025605309643e-07
3.36991445335635e-07
1.75794770025049e-07
2.41621539083035e-08
3.43928121740137e-08
3.10315505440031e-07
8.18478794144097e-07
1.38446544811217e-06
1.77553270329248e-06
1.82215799446597e-06
1.51164875518449e-06
9.9339415045957e-07
4.84613009702339e-07
1.43548583686081e-07
7.41398061126214e-09
2.63886615378412e-08
1.36406770532014e-07
3.01363907732843e-07
5.06992385095705e-07
7.28872663764941e-07
9.06531929269612e-07
9.54692311598802e-07
8.19887214761453e-07
5.39900352313985e-07
2.39255904001985e-07
4.6149330532952e-08
1.11358145777867e-09
4.38746581536244e-08
8.44373043426825e-08
8.00999107478681e-08
4.76404483002032e-08
1.98786770847933e-08
8.72586263853906e-09
1.02139254567848e-08
2.7029038190377e-08
6.71557000307512e-08
1.19392765978506e-07
1.47190627116841e-07
1.21859266061702e-07
5.89547426193972e-08
8.37035716061216e-09
3.82740516782971e-09
2.99925584247702e-08
4.53166614906891e-08
3.101366953379e-08
7.07189970057491e-09
5.69671588159872e-10
1.09876426350954e-08
1.62527045334589e-08
6.87363077494924e-09
1.68622690445558e-10
1.57293586565617e-08
4.53777236064951e-08
5.87307464124076e-08
4.00508410209171e-08
9.79673255959332e-09
6.93949597650512e-10
1.73311183266964e-08
3.26331394208563e-08
2.55030873709057e-08
6.91904046239005e-09
1.75397030998019e-10
7.82370362399588e-09
1.28483726216048e-08
6.72651564881891e-09
1.40803886907867e-10
4.33868535644876e-09
1.4344769125912e-08
1.67565260971676e-08
8.22479880005853e-09
2.25105255746863e-10
5.50056210206814e-09
2.16411198886815e-08
3.08815630268685e-08
2.05986888646927e-08
2.98170977586708e-09
4.04614551016878e-09
2.83178328957913e-08
4.75244753567596e-08
3.65050610238076e-08
9.15694427806816e-09
1.09935814766639e-09
2.20866394156504e-08
4.44297339851569e-08
4.05103169094169e-08
1.64188581200038e-08
4.32009992182357e-10
6.69382268013499e-09
2.102008957657e-08
2.23988805257926e-08
9.61281499344724e-09
1.44418106710333e-10
5.63302348500611e-09
1.70226610489328e-08
1.79662258759585e-08
7.26609890865448e-09
9.55222631750925e-12
6.59478275896302e-09
1.84711718830048e-08
1.97376321989914e-08
8.75369630023324e-09
1.98722472814078e-10
4.22250754016875e-09
1.19775031455638e-08
9.67612305602316e-09
1.18869530703091e-09
3.0713456659088e-09
1.72163467547614e-08
2.46595133447072e-08
1.37404240230998e-08
5.32619787181482e-10
8.48470386331948e-09
3.48697006272233e-08
5.13269758636332e-08
3.86191449874079e-08
1.10586091010427e-08
3.54679588254456e-10
1.85364634828959e-08
4.38693252424651e-08
4.63736821188424e-08
2.31512027092903e-08
1.68290588123511e-09
6.45777649384202e-09
2.88998483183628e-08
3.85453221469067e-08
2.26204006157139e-08
2.53080243587635e-09
4.22981809479725e-09
2.28792388542502e-08
3.1211580866172e-08
1.81818609807025e-08
2.10711061846875e-09
2.86279839929018e-09
1.58650894025488e-08
2.16372426451329e-08
1.26763850328491e-08
1.39087437855534e-09
2.59974426033677e-09
1.44863777274477e-08
2.08983417911266e-08
1.2567973705031e-08
1.03726797030939e-09
4.36617661283268e-09
2.06244500648716e-08
2.802993215608e-08
1.58811536088326e-08
1.25759835427423e-09
4.59083465660736e-09
2.05266834690302e-08
2.68973810695493e-08
1.57810204813422e-08
2.07383642302229e-09
2.09199306394415e-09
1.34272172891569e-08
1.98398796156552e-08
1.259034288965e-08
1.60272452415883e-09
2.45818723475311e-09
1.51535393941753e-08
2.30167997088099e-08
1.49853108356449e-08
1.89009242664801e-09
3.34267510598423e-09
2.08138334859989e-08
3.30595460475377e-08
2.32896535276824e-08
4.03248322944592e-09
2.93918225910386e-09
2.42227014217749e-08
4.01148086063234e-08
2.87069467054755e-08
5.49367339850849e-09
2.49470166049494e-09
2.48911075181696e-08
4.52731345670765e-08
3.96798808901543e-08
1.57337761255803e-08
3.59181919598502e-10
7.06750774500731e-09
2.27432832338461e-08
2.64019461196175e-08
1.45413291761768e-08
2.13500385196446e-09
7.89350360217042e-10
5.10676946749485e-09
4.55219845768085e-09
4.22617911748344e-10
2.18068107980099e-09
1.07486350841111e-08
1.53624577312849e-08
8.93641674963027e-09
4.00819462724308e-10
6.13526619935097e-09
2.81663589981367e-08
4.57815708361275e-08
3.73836768506618e-08
1.11512626870336e-08
5.17412874368278e-10
2.15749954132728e-08
4.94716353752592e-08
5.04890973843142e-08
2.505131557726e-08
2.74840144293093e-09
2.841359297163e-09
1.56188251852922e-08
2.09824708708922e-08
1.31480155875853e-08
2.79513453663869e-09
1.50214756362479e-10
2.73075683745332e-09
2.38215039528131e-09
1.75924554034525e-12
5.14507985702754e-09
1.93930916728718e-08
2.87414392053256e-08
2.04986225079781e-08
3.81666068585047e-09
2.64393446839531e-09
2.54347014924198e-08
5.08879327327627e-08
5.16583449724026e-08
2.73463778944174e-08
4.0259138287812e-09
1.71299924281119e-09
1.27178227187858e-08
1.64249197655943e-08
7.42083135736661e-09
3.54181018370435e-11
6.38352704884901e-09
1.87458272378025e-08
1.97293263715016e-08
7.14813375078036e-09
2.26827914292084e-10
1.56259838258161e-08
4.21400520520369e-08
5.01171142041994e-08
2.88355753671291e-08
3.49354142833598e-09
4.88741528901572e-09
2.91247070288806e-08
4.26040787324579e-08
2.71430882242179e-08
3.88927880946356e-09
3.84131324443308e-09
2.65868082726526e-08
4.28206610395216e-08
3.36405398546448e-08
1.17126455586734e-08
2.11806559971808e-10
3.80168401245391e-09
9.16502758719352e-09
6.69761654928729e-09
1.04321665080214e-09
8.4682667559992e-10
5.75276040212051e-09
7.49442646294047e-09
2.60213701944748e-09
6.94078588071614e-10
1.58706449443274e-08
4.7501729896953e-08
7.37787920566436e-08
7.17107747912341e-08
4.33559916519055e-08
1.38336025958644e-08
1.26636342094177e-09
5.68273894235674e-13
1.08291850382665e-09
1.46707407972301e-08
5.03177467316238e-08
8.1666492753906e-08
6.58213956850354e-08
1.38079606807448e-08
1.22701948208497e-08
1.40775766713903e-07
3.73843440114441e-07
5.90482335645229e-07
6.80245780697248e-07
6.2394388257706e-07
4.79427508549749e-07
3.17744861748934e-07
1.81532313161895e-07
8.36220052337885e-08
2.3161464072582e-08
4.93548497574023e-11
2.54086081834901e-08
1.3045547103547e-07
3.65261891022112e-07
7.64951168485034e-07
1.27652834744713e-06
1.70753523449246e-06
1.80301559941605e-06
1.44955462065296e-06
8.15545441182719e-07
2.47169996642041e-07
4.36815811325867e-09
9.99585451636894e-08
3.63104921315228e-07
6.06273279739792e-07
7.29881744967341e-07
7.24883084430835e-07
6.29691035274956e-07
4.92974933884023e-07
3.53984652373927e-07
2.3452333927264e-07
1.39794694873324e-07
6.7076491337899e-08
1.72728443287363e-08
1.11598551061521e-10
2.38607387501297e-08
7.51571092334126e-08
1.15944315405565e-07
1.13351140618331e-07
7.21151921478555e-08
2.69798693328495e-08
3.99688220228863e-09
4.31233181966328e-13
2.44449409022387e-11
1.85547594260384e-09
1.49601526336497e-08
3.99371624722642e-08
5.93214080735184e-08
5.43247495155402e-08
2.7904179275419e-08
4.11373332307499e-09
1.88572932213974e-09
1.48572141077001e-08
2.21642201720824e-08
1.48058727629024e-08
3.29337462890274e-09
2.17378080275423e-10
4.20327364208633e-09
5.31796608196555e-09
1.23553279612466e-09
1.26251331874458e-09
1.29098198952818e-08
2.86898132107334e-08
3.21554333670122e-08
1.83934205351011e-08
2.53366652409807e-09
2.33815581294614e-09
1.60243730675247e-08
2.47914871367856e-08
1.70132057438962e-08
2.97716481556543e-09
1.99612823600186e-09
1.77261955687626e-08
3.19333498208902e-08
2.6395159500975e-08
7.55560732249503e-09
5.33194759996222e-10
1.65427834002534e-08
3.66733450952245e-08
3.59512425167518e-08
1.57658153334562e-08
6.41160751568368e-10
5.22677703255693e-09
1.70359919754952e-08
1.64934944056169e-08
4.72437504986537e-09
5.30655555480741e-10
1.1665529595738e-08
2.22138336674143e-08
1.58699600945595e-08
2.01192494589254e-09
3.99668468527811e-09
2.37965507469672e-08
3.61078897333944e-08
2.3963537863005e-08
3.87351167576578e-09
2.65641242869519e-09
2.08726930840959e-08
3.45465462527613e-08
2.75635868686136e-08
9.16126899476496e-09
6.88602950634713e-13
8.85073447623533e-09
2.43673786193418e-08
2.79745976520322e-08
1.52021028192706e-08
1.60183682975648e-09
2.44162211898327e-09
1.13816243283967e-08
1.11535793813021e-08
2.07416283889299e-09
2.20724592583853e-09
1.68608741086939e-08
2.7065353833093e-08
1.77495689189113e-08
2.15397909679429e-09
3.92801086607326e-09
2.3414420278881e-08
3.73764561306764e-08
3.02186182697186e-08
1.1602102447274e-08
5.26623099354153e-10
2.49658108748618e-09
7.76155315049987e-09
6.53872797439689e-09
9.3638236388454e-10
2.31588987032033e-09
1.6788793123169e-08
3.26018211464441e-08
2.88958577012042e-08
6.95206630677664e-09
4.15113172276804e-09
5.19869215987884e-08
1.20124050941814e-07
1.37575356546012e-07
8.26573264589411e-08
1.58939949632239e-08
2.99802337063679e-09
3.80527782207651e-08
6.69839236097054e-08
5.94294494575631e-08
3.05422660109745e-08
7.634301814615e-09
1.65403003799357e-10
9.1161702867789e-10
1.39005463925495e-09
2.43632434968882e-10
3.85702535720322e-10
2.45879700795736e-09
3.21633330955026e-09
9.30262743660955e-10
7.60666077050699e-10
1.03803415682653e-08
2.73784471397296e-08
3.58009752468924e-08
2.40478048329855e-08
4.53068101915878e-09
2.05186265647972e-09
1.95764429619696e-08
3.20367585173826e-08
2.1999425895627e-08
4.08311869898495e-09
1.31564986510144e-09
1.21524354723469e-08
1.69188125285905e-08
8.35296376170543e-09
1.44932101660886e-10
5.9126603930912e-09
2.03046113497404e-08
2.57004015372835e-08
1.48248273261809e-08
1.41488120355259e-09
4.09026093950225e-09
2.13440938737322e-08
3.12917910523154e-08
2.04047100725398e-08
3.07631241680811e-09
2.78823480411483e-09
2.00740338927999e-08
3.19915148792508e-08
2.2958023833046e-08
4.86734293445547e-09
1.42931795601766e-09
1.79417855531245e-08
3.42238874651052e-08
2.97977458024956e-08
1.02647278097225e-08
3.6798829278286e-12
9.44321101150674e-09
2.17722586554178e-08
1.80741916347173e-08
4.23714585965984e-09
9.5837453182337e-10
1.31442887426485e-08
2.34471904261528e-08
1.73975944607081e-08
3.49340227707817e-09
1.5086440106732e-09
1.6260283816309e-08
3.11506023744081e-08
2.85792989659426e-08
1.14628161118608e-08
1.06324650527562e-10
7.98381366868231e-09
2.49233376317231e-08
2.91338861258782e-08
1.49843518599058e-08
9.08732446338036e-10
5.19903859840129e-09
2.14647413341419e-08
2.77210718736554e-08
1.62026060553691e-08
2.26139991420991e-09
1.46071681535466e-09
8.73239380489509e-09
8.8952081250718e-09
1.61549413938942e-09
2.02143076624903e-09
1.48221226672442e-08
2.31027394567869e-08
1.33724067362326e-08
3.89608552226475e-10
1.08963952757473e-08
4.58210120071323e-08
7.37864961309869e-08
6.6276908057117e-08
3.07320403125911e-08
2.52440936913751e-09
6.37167251162719e-09
3.08771180576086e-08
4.37529673284905e-08
2.96683590832116e-08
6.5343273224979e-09
8.91769779316506e-10
1.37989434252522e-08
2.2025115034356e-08
1.24283950523778e-08
5.16278839808819e-10
6.62478195929397e-09
2.55301077819095e-08
3.39151752616798e-08
2.23773561256256e-08
5.45105471206337e-09
1.61085989654478e-10
6.3930340260661e-09
1.17180378089026e-08
8.54453530462276e-09
1.73432925126703e-09
5.55801536269643e-10
5.81593981485352e-09
8.29695458942096e-09
3.00353381416681e-09
6.22183835295325e-10
1.40576673060934e-08
3.41451734065689e-08
3.58235299700382e-08
1.49968538303065e-08
3.99995059073567e-11
1.30834995537737e-08
3.6853677512735e-08
3.85288820686429e-08
1.58339080644734e-08
3.44646920898377e-11
1.52085220353893e-08
4.89520153785498e-08
6.72231698585926e-08
5.16703893845656e-08
1.8186851773425e-08
5.2184398430892e-11
1.48775833140266e-08
4.86078646749273e-08
7.11613230630822e-08
6.59283131971526e-08
4.22953348504679e-08
2.05955826617079e-08
1.10508817565275e-08
1.35079912699462e-08
3.26668966580853e-08
7.57232671423256e-08
1.25571282695944e-07
1.35438103209326e-07
7.9528607844025e-08
8.92240274723401e-09
2.59469821417394e-08
1.82807454102384e-07
4.17632151848425e-07
6.05913528624398e-07
6.6738048805115e-07
6.13268397503541e-07
5.05855618450272e-07
3.9655325091118e-07
3.00892156757424e-07
2.09627516815127e-07
1.13165778444532e-07
2.66706605603324e-08
5.23337442938018e-09
1.34026153575361e-07
4.83979335814468e-07
1.04239675506327e-06
1.65867063114457e-06
2.07088220942548e-06
2.04697627484346e-06
1.56310109008612e-06
8.55808276386471e-07
2.6743075870584e-07
1.05407639337583e-08
6.38799530988274e-08
2.63374769374653e-07
4.5821881786523e-07
5.87016181861522e-07
6.55862716047178e-07
6.85868871034861e-07
6.8189463169411e-07
6.30505309252791e-07
5.17081248104209e-07
3.49103421995936e-07
1.68506001959993e-07
3.76772625251228e-08
7.95433258797011e-10
4.78191533020876e-08
1.17638903467969e-07
1.46388426123449e-07
1.17854931834785e-07
6.49890601132593e-08
2.60218635887359e-08
1.07385260602969e-08
1.0882529288918e-08
2.51928628066867e-08
5.66844682129079e-08
9.13776550268738e-08
1.00059789300007e-07
6.94719857508199e-08
2.28970749392271e-08
5.77618072412987e-11
1.65015118010962e-08
4.8212009744401e-08
5.88607230440727e-08
3.86265609973392e-08
1.05673226206767e-08
6.01516606584976e-12
6.66814161729511e-09
1.19684631475688e-08
6.5325267002507e-09
1.48799142497957e-10
4.35300769188569e-09
1.45293092819145e-08
1.6366089170385e-08
6.90451892104792e-09
2.79066971666602e-12
7.31395141198348e-09
2.06590808161378e-08
2.15610080959367e-08
7.54247990761682e-09
4.96225537767732e-10
2.17390704193529e-08
6.03240907038414e-08
7.73779630066216e-08
5.13959506455537e-08
1.06666350866255e-08
2.64716172727656e-09
3.37933538907969e-08
6.25199699258486e-08
5.48873688980361e-08
2.33926786491971e-08
1.9188122025369e-09
2.7326107967941e-09
1.13958749621063e-08
1.21083734137515e-08
4.85221445508519e-09
1.87106922955353e-11
3.86723317991861e-09
1.13558093872833e-08
1.24606253366259e-08
5.22718323112576e-09
3.89222629527899e-14
6.30844054019207e-09
1.74495464464852e-08
1.73730072401142e-08
5.25142496429991e-09
6.64057457581536e-10
1.5022409697789e-08
3.02512910128242e-08
2.31411309751536e-08
3.54892645553277e-09
4.960514925901e-09
3.49933392576459e-08
5.92782935726731e-08
4.69835975440755e-08
1.37181292732212e-08
3.12591040415686e-10
1.93548638597989e-08
4.30424867671699e-08
4.20825725867434e-08
1.94463022096626e-08
1.32080936446455e-09
4.91366737857668e-09
2.18611072203953e-08
3.06035720556277e-08
2.10090520950326e-08
4.80953036656421e-09
6.28452740910191e-10
1.09415400808267e-08
1.98704048605828e-08
1.50796290764676e-08
3.70816455925369e-09
2.54809769323539e-10
5.347199974431e-09
7.22476409300396e-09
2.13265164425484e-09
6.83676562504215e-10
9.91559299003396e-09
1.96698077265324e-08
1.6168405548191e-08
3.73297182955871e-09
1.24332566550533e-09
1.59108284539449e-08
3.12230587759566e-08
2.79042792279538e-08
1.0067720642849e-08
2.59769149558605e-12
8.49379012566122e-09
2.14577056915075e-08
2.01865524324588e-08
6.58201659981265e-09
2.0501689172873e-10
1.2176737177424e-08
2.97977955260248e-08
3.16399632750779e-08
1.49565334964628e-08
5.59914285168062e-10
7.10879642481402e-09
2.68997337560782e-08
3.5296638327779e-08
2.2121463340097e-08
3.88979727107597e-09
1.48191055104022e-09
1.35405472927998e-08
2.04244257770292e-08
1.20171787345439e-08
9.55553724031112e-10
3.79854514986453e-09
1.73467431419471e-08
2.31503682759623e-08
1.31388613050278e-08
1.02039843521798e-09
4.45954379135075e-09
2.13124892496585e-08
3.08610611164629e-08
2.0284265362227e-08
3.10836045986896e-09
2.88334852518022e-09
2.10277788867528e-08
3.36082641722682e-08
2.38331848107752e-08
4.95152113944905e-09
1.26086948485285e-09
1.51077107506594e-08
2.56486878617207e-08
1.83592285856218e-08
3.65643074470225e-09
1.24526599672291e-09
1.32450531312119e-08
2.19808985334705e-08
1.46415822757142e-08
1.71783183428242e-09
3.93776229957137e-09
2.36086137011708e-08
3.85623733070196e-08
2.96348125322055e-08
7.44653869441859e-09
1.04310439894823e-09
1.98445940802952e-08
3.94744253975156e-08
3.35189354519157e-08
9.84806985213661e-09
4.44761349192622e-10
1.73440897901915e-08
3.62026179653707e-08
3.06708383689093e-08
8.67442829693296e-09
5.84394330612012e-10
1.78736928630202e-08
3.88049445076625e-08
3.73434576205532e-08
1.56848236251219e-08
3.13810393476833e-10
8.27836798449673e-09
2.61886884865398e-08
2.86136241621835e-08
1.23013181025542e-08
1.02108573784598e-10
8.84749294662497e-09
2.62148210625486e-08
2.85099354850125e-08
1.30108272721973e-08
3.80768318276011e-10
6.27947025173525e-09
2.13905531549546e-08
2.49543846754247e-08
1.24764029923951e-08
7.28522775005518e-10
3.7408257909285e-09
1.33787023981511e-08
1.26414208541502e-08
2.60355536319887e-09
1.96428304894181e-09
1.80463000643897e-08
3.27907356091774e-08
2.67762830926981e-08
7.38576337777964e-09
6.81902031806641e-10
1.84336946412756e-08
4.35590528504049e-08
4.97877160289996e-08
3.05683005276177e-08
6.09029167807624e-09
1.4104654614936e-09
1.79954195073467e-08
3.1708932240484e-08
2.36285260115005e-08
5.20099968237762e-09
1.01373787398464e-09
1.29766048052746e-08
1.95819828955032e-08
1.0047200323637e-08
1.58637273998654e-10
7.46751981553314e-09
2.45513872501231e-08
2.88387908587775e-08
1.41924947489508e-08
4.68607330475434e-10
7.82355091663434e-09
2.97307197913394e-08
4.03895030838683e-08
2.69936278750763e-08
5.59576155931743e-09
1.43523365537491e-09
1.88214750877906e-08
3.6779580819256e-08
3.46398743156126e-08
1.5902750326867e-08
1.39556192707986e-09
1.95549230757402e-09
7.46773684936758e-09
5.41873899454292e-09
1.71497771271283e-10
4.62292204175743e-09
1.78430712692113e-08
2.3349405121275e-08
1.25176794507684e-08
3.66568754330642e-10
9.65871829330476e-09
4.18466720458312e-08
7.18545984102145e-08
7.41102225673506e-08
4.90021273145086e-08
1.94571414994461e-08
3.93935404979296e-09
7.21922787409513e-10
2.77739073742118e-09
1.83674515924892e-08
5.90982136692202e-08
1.05860008899259e-07
1.10917619543306e-07
5.65464562162093e-08
2.02306214923696e-09
4.2659249955134e-08
2.09593271071331e-07
4.24137527829438e-07
5.64605714412323e-07
5.71544256595423e-07
4.79549752924175e-07
3.61716104389787e-07
2.65887931973315e-07
1.98935660331004e-07
1.44546875248089e-07
8.55409163339023e-08
2.47847161256762e-08
1.60066140511184e-09
8.97484028159551e-08
3.64147403042362e-07
8.37297936673516e-07
1.39550607753323e-06
1.80299763588466e-06
1.82700942544709e-06
1.42133443027672e-06
7.94150691071127e-07
2.61607312424259e-07
1.68004446228924e-08
3.70085595407062e-08
1.81369468022502e-07
3.32981946980184e-07
4.51988556330074e-07
5.44864922319139e-07
6.1934600276622e-07
6.63213530623435e-07
6.48977044407948e-07
5.54924873541726e-07
3.88361513151064e-07
1.95586565881389e-07
4.75167394077572e-08
3.69207519493747e-10
5.2236723522703e-08
1.3649595416578e-07
1.73149321658968e-07
1.36553643137466e-07
6.75574933896112e-08
1.86515055780305e-08
2.39244698734759e-09
7.34169520287748e-10
5.07019033848026e-09
2.36414901786171e-08
5.44778362496706e-08
7.4363721008755e-08
6.33900778982965e-08
3.01164442276387e-08
3.69812964646661e-09
2.68163091499655e-09
1.65342504000097e-08
2.0968365761088e-08
9.40540760195501e-09
4.855162315201e-11
7.1970499688984e-09
1.85239694543433e-08
1.47411571171381e-08
1.84607042953005e-09
5.21331939200892e-09
3.43241577445033e-08
6.78020321970923e-08
7.53302674670055e-08
4.88452010843834e-08
1.23443077509173e-08
7.35410423051886e-10
2.34161396242907e-08
5.06705900437006e-08
4.74093380585573e-08
1.82227751812479e-08
1.39182223978766e-10
1.01294948538767e-08
2.50546503754351e-08
2.06309048533796e-08
5.02361979015788e-09
5.93565552062601e-10
1.05783823288902e-08
1.87948464048378e-08
1.40562159980702e-08
3.27199038665061e-09
5.4754335241609e-10
8.68947498047927e-09
1.56231087208915e-08
1.09155245435573e-08
1.4309843164264e-09
2.38296272765002e-09
1.42311357238881e-08
2.04414369684954e-08
1.16874301129038e-08
6.9927204593836e-10
5.23879976799695e-09
2.34096394387542e-08
3.51376415115175e-08
2.70198037404426e-08
8.46299568904907e-09
2.94578529433178e-11
9.20257391988235e-09
2.25671586516716e-08
2.27854160080839e-08
9.71608030076454e-09
1.53408672153142e-10
5.52714447053967e-09
1.56970914323681e-08
1.34164057966649e-08
2.1072975068215e-09
3.21687764071634e-09
2.16007160557747e-08
3.35985501380748e-08
2.18682901197229e-08
3.00487627126606e-09
3.35576317198546e-09
2.1659181541079e-08
3.33398687395125e-08
2.42651762111228e-08
6.21594583293987e-09
5.15320215153904e-10
1.38996701848836e-08
3.14158697483411e-08
3.22656950576807e-08
1.43315188944759e-08
1.70983709778272e-10
1.11727798538876e-08
3.77020072251224e-08
4.80118495387297e-08
2.93231904078948e-08
4.81262215370043e-09
2.31129359584701e-09
1.94791159126748e-08
3.1059073924594e-08
2.27195176832306e-08
6.03083391989364e-09
1.56283857400569e-10
7.00114939634104e-09
1.14214541011834e-08
5.22244769243785e-09
2.27141020953248e-11
7.83238676672768e-09
1.9156275588968e-08
1.64295222652183e-08
3.36370781019914e-09
2.14689308236244e-09
2.12187783703927e-08
4.14369447138045e-08
3.95183301945313e-08
1.71788125442895e-08
4.211955116434e-10
9.55064285803363e-09
3.37499990352277e-08
4.25088944258342e-08
2.41795661768558e-08
2.47094462335522e-09
5.03772099258388e-09
2.55922836488944e-08
3.36600241392321e-08
1.79187422431444e-08
1.00574849177378e-09
6.99642506269988e-09
2.87918656748356e-08
3.83713949362995e-08
2.35980651144492e-08
3.41177683977952e-09
3.07679397439189e-09
2.15489740174794e-08
3.31980476835271e-08
2.22566135581066e-08
3.81420571155729e-09
1.96902189519274e-09
1.5799030083093e-08
2.19575079746053e-08
1.01410356892185e-08
5.35363233932035e-13
1.41507227458484e-08
4.37604632024627e-08
5.52537200179235e-08
3.29826228521546e-08
3.71421165636885e-09
8.35624056403507e-09
5.20985184874916e-08
9.39491897364495e-08
9.11401140041251e-08
4.72446825142669e-08
6.76312111654549e-09
3.40148183359792e-09
2.56876921383572e-08
3.89376350612688e-08
2.8823881083936e-08
1.02784501772515e-08
7.03680349536837e-10
6.29214073456464e-10
1.48391418672323e-09
2.43227827441317e-10
8.41254977459776e-10
5.41168889332562e-09
9.10692644696815e-09
6.06745905728714e-09
3.14491436493572e-10
4.86730276811489e-09
2.34079279809474e-08
3.81447939979869e-08
2.94662581933695e-08
6.81341527283769e-09
1.82733134978354e-09
2.4513777652052e-08
4.53917494149825e-08
3.55828987964049e-08
8.60929165210221e-09
1.34097657979817e-09
2.27689508450879e-08
4.47770905527036e-08
4.1788143220839e-08
1.96664161148338e-08
2.11758561382507e-09
2.24581474709752e-09
1.30886794656897e-08
1.94684860041255e-08
1.43200219953161e-08
4.27144845801053e-09
1.65433931505463e-13
2.32313196867388e-09
2.80302152429229e-09
3.2355084714127e-11
6.32532113493695e-09
2.83951243552956e-08
4.82618262790687e-08
4.09393576292475e-08
1.25356651511366e-08
6.31184445971392e-10
2.60885656720913e-08
6.19427965729488e-08
6.70040246982586e-08
3.77872025352741e-08
7.47706429951702e-09
4.43161918313599e-10
8.08591205423837e-09
1.0188782976828e-08
3.36176243657194e-09
2.787862604628e-10
8.45243518747279e-09
1.90699105437851e-08
1.84132881679388e-08
6.56795042687901e-09
1.4175988663211e-10
1.30909083726284e-08
3.65236392364141e-08
4.50062938058367e-08
2.7425101600672e-08
4.15091757447656e-09
3.18768380511765e-09
2.33584735490903e-08
3.56111245902704e-08
2.27637553287808e-08
2.93531460137246e-09
4.16367703289831e-09
2.58975009855178e-08
4.01343188004249e-08
2.91201951592255e-08
7.43617621563304e-09
3.43085545399612e-10
1.06327528125087e-08
1.85868719235282e-08
1.14923553394741e-08
7.83203162547216e-10
5.02497225995479e-09
2.30024716225706e-08
3.32841982912547e-08
2.20847948874591e-08
3.41978225857275e-09
3.5656486026344e-09
2.84496693627221e-08
5.58609073306443e-08
6.12250675636131e-08
4.31785226104465e-08
1.99783966381592e-08
6.65146344182027e-09
3.61699428577258e-09
9.02342379652605e-09
3.24877698068632e-08
8.01025068109727e-08
1.23362833983669e-07
1.1068549061988e-07
3.9608576636119e-08
1.40555164103739e-09
1.05020413609479e-07
3.4467683480942e-07
5.80974275453567e-07
6.71946680725473e-07
5.96101127766253e-07
4.36685016925798e-07
2.8309254914978e-07
1.72346298509459e-07
9.90863007747827e-08
4.70410025413919e-08
1.00727144646745e-08
2.83080983390201e-09
6.44071167346302e-08
2.48484616074955e-07
5.87637113466095e-07
1.03435960924543e-06
1.42637452624949e-06
1.54868315302794e-06
1.29104178346668e-06
7.68743623210639e-07
2.63392404738555e-07
1.40923742575334e-08
5.33979390455674e-08
2.31687722050129e-07
3.75085818670306e-07
4.10623326045097e-07
3.68526789189856e-07
3.10461574062507e-07
2.74850726741236e-07
2.68282536250656e-07
2.75380626913636e-07
2.6777416398565e-07
2.20037274149265e-07
1.33606225724899e-07
4.51258046496765e-08
1.14345789661546e-09
1.8617013404928e-08
7.10384740182731e-08
1.13570155279589e-07
1.19460041003627e-07
9.3637636543849e-08
5.84558432643126e-08
3.20729904845688e-08
1.93133757528565e-08
1.71482990989411e-08
2.23350647890484e-08
3.07067239107905e-08
3.34446181021615e-08
2.3145377918821e-08
6.12989828116083e-09
5.69768827074136e-10
1.56341742492587e-08
3.73059496936014e-08
4.27191989942782e-08
2.67044659123216e-08
6.54674554351118e-09
1.15196864724969e-10
6.46886508686096e-09
1.14143378811437e-08
7.17072269037214e-09
6.45318022227965e-10
2.22562861506467e-09
1.09687109546763e-08
1.53869665096818e-08
9.19334844827914e-09
8.72769749064841e-10
2.47700372670393e-09
1.22467113392032e-08
1.65086630209416e-08
9.0951509369854e-09
5.31121272883587e-10
3.85188683227792e-09
1.65563662596701e-08
2.29273270626965e-08
1.42890353870357e-08
1.70385135758833e-09
3.30935717621558e-09
1.99834310717353e-08
3.15911882100557e-08
2.25915061135445e-08
4.44218075700937e-09
1.87666812230584e-09
1.91735036747099e-08
3.33647045369981e-08
2.53690472556404e-08
6.05688763720115e-09
8.96640321692768e-10
1.50420881783939e-08
2.72859683283308e-08
2.00927439034981e-08
3.78069245745526e-09
2.00689496328252e-09
1.84058464252361e-08
3.03576814599264e-08
2.03302556826863e-08
2.47593306242603e-09
5.00182878703572e-09
3.01403497423887e-08
4.83312230663815e-08
3.67749499826216e-08
9.83202114069261e-09
6.56091576861711e-10
1.96418330898834e-08
4.28227447210696e-08
4.22538103013765e-08
1.92811493882337e-08
9.98630511093259e-10
6.0805246845496e-09
2.28823633496151e-08
2.64620348603325e-08
1.18105358913197e-08
8.94338318315093e-11
9.56351002831328e-09
2.9551569138999e-08
3.35187383089987e-08
1.56248620087225e-08
3.3869127572256e-10
9.2894426671115e-09
3.08307845186108e-08
3.60530593608631e-08
1.85328735249653e-08
1.45840095227655e-09
4.01302365248446e-09
1.6228714830383e-08
1.65370643952091e-08
4.54221203091559e-09
9.10457818918873e-10
1.51420133854783e-08
2.96290278562934e-08
2.43729777257273e-08
6.24258329135708e-09
1.11457018984856e-09
2.0928417839486e-08
4.86294658435128e-08
5.66278262310069e-08
3.62014799631286e-08
7.87506994960029e-09
1.47428203595407e-09
2.31108626897067e-08
4.58657518987314e-08
4.13142714483132e-08
1.57185492952426e-08
1.92218009279674e-10
7.10602346187705e-09
1.67651018827768e-08
1.1426788094236e-08
1.01142234012148e-09
3.51048899297753e-09
1.57444492724985e-08
1.91997265912014e-08
8.53251291254875e-09
1.23177008694586e-11
9.17159599398596e-09
2.86198228841087e-08
3.57546065602586e-08
2.15108207564237e-08
3.09871904302483e-09
2.69632600858273e-09
1.89019873967653e-08
2.89928928122239e-08
1.93555704331426e-08
3.22453994870287e-09
1.98963553209412e-09
1.57087488124982e-08
2.34122451758391e-08
1.32473060847994e-08
5.88114160798909e-10
7.39973924110315e-09
3.02507494068039e-08
4.20786857355028e-08
2.74187442505202e-08
4.45444458565179e-09
3.42325788360337e-09
2.80453837272769e-08
4.96908881473266e-08
4.27446292259979e-08
1.60712849284878e-08
1.87662169613955e-10
8.22347732790662e-09
2.23252336748116e-08
2.07097505976517e-08
6.40911752784568e-09
2.17327625754694e-10
1.04370764419549e-08
2.16935671416829e-08
1.73495260329842e-08
3.67301301513419e-09
1.54752887191287e-09
1.69813113964647e-08
3.16888933208374e-08
2.70192696595663e-08
8.81723148150334e-09
6.45798502793339e-11
1.0790776325873e-08
2.46493322819375e-08
2.12106892570346e-08
5.28245137273004e-09
1.13338604455803e-09
1.6976821865781e-08
3.14307062344003e-08
2.41146064568242e-08
5.41649050301653e-09
1.20382773631112e-09
1.62185967559997e-08
2.8859400775141e-08
2.17527479125913e-08
4.71094122044566e-09
1.54112445297601e-09
1.93717256952158e-08
3.83815855369735e-08
3.49288991602584e-08
1.21755360499853e-08
1.4541245014175e-10
1.96687355028438e-08
5.24266640737869e-08
6.02922553417496e-08
3.407003338834e-08
5.15041796689443e-09
2.16968524927575e-09
1.53273677095417e-08
1.763799618087e-08
5.77606438276432e-09
3.28887075769451e-10
1.17066825893481e-08
2.4213089339543e-08
1.88470654943571e-08
2.78281068377575e-09
5.64904993670691e-09
4.25435831504706e-08
8.72094868506643e-08
9.47959859039494e-08
5.47929505866406e-08
8.81058409263018e-09
4.77177161451144e-09
4.1264278005463e-08
7.16005912224717e-08
6.09579750999944e-08
2.40709963390669e-08
8.6840396886935e-10
7.07674006429884e-09
2.16290440635111e-08
1.99320000486854e-08
5.49325082268664e-09
5.82284551097796e-10
1.26972309308005e-08
2.41954149292707e-08
1.84587354668104e-08
3.92126350012945e-09
1.10624232982855e-09
1.25708860241634e-08
2.01832692414509e-08
1.24433837294997e-08
1.09762687437111e-09
3.89897388783682e-09
1.92829988013243e-08
2.83418725308861e-08
2.01236452915357e-08
5.12272728929597e-09
2.22386575011854e-10
7.36114862560189e-09
1.36795497099599e-08
1.00824539156453e-08
2.23649176528724e-09
2.22544267027343e-10
2.59198975162063e-09
9.44035269522602e-10
3.17333948845829e-09
3.74668698418539e-08
1.15846425420701e-07
2.00040104801639e-07
2.25871371808549e-07
1.67779985412315e-07
6.88636554857609e-08
4.33399220189482e-09
1.92299834063659e-08
9.66822422693617e-08
1.78232543316792e-07
2.1540176443641e-07
2.05761667131523e-07
1.82610862913295e-07
1.80744583748816e-07
2.19827491048544e-07
3.00582095230546e-07
3.88551254316867e-07
4.12356012205814e-07
3.18083727820438e-07
1.41286656761435e-07
9.1399265903692e-09
5.60361549264701e-08
3.26424341480817e-07
7.39224513387892e-07
1.12846299117486e-06
1.33040018303506e-06
1.27047879800184e-06
9.9843197165642e-07
6.4481631775945e-07
3.33661401699284e-07
1.24389163932107e-07
1.90890624646986e-08
5.41916350597508e-09
8.68113442558838e-08
2.75246955495975e-07
5.50185614125611e-07
8.21510440820247e-07
9.53493490684182e-07
8.5750144522847e-07
5.74347412949415e-07
2.55539677784175e-07
5.00473573910585e-08
7.78536701502245e-10
4.07729445408822e-08
7.5887040517568e-08
6.48159556652297e-08
2.89874336451485e-08
4.62488459152722e-09
3.76879587620926e-11
3.94918331203819e-10
1.22595054709369e-09
1.95201588888249e-08
6.49564239053395e-08
1.12185104794967e-07
1.19392462412789e-07
7.67133600631374e-08
2.21624490054719e-08
1.11706414401318e-11
1.22946242123724e-08
2.48177144605077e-08
1.62298795262809e-08
1.73812207174442e-09
3.29000931228602e-09
1.5501773832569e-08
1.68431226839938e-08
4.80886050811978e-09
1.18778024483944e-09
2.02885545450883e-08
4.53962889841913e-08
4.73742240950204e-08
2.29305254184684e-08
1.32275172811007e-09
7.44948203922427e-09
2.96154506429945e-08
3.63966180761036e-08
1.89868068810298e-08
1.18073245803995e-09
6.73829206069141e-09
2.95284774259561e-08
4.21882667214115e-08
2.94276811655194e-08
6.45389905551896e-09
1.5318371584346e-09
2.15418672517288e-08
4.18518970736699e-08
3.66376087617822e-08
1.27546191630846e-08
8.28334448723305e-13
9.91557531106279e-09
2.24057227772678e-08
1.79047252753355e-08
4.27435704841102e-09
4.36567637683735e-10
7.29890201798078e-09
1.00566748390233e-08
3.44267588885936e-09
5.93158650267387e-10
1.39448620695347e-08
3.45718977103727e-08
3.87774042661966e-08
1.8751399907368e-08
2.70348629679852e-10
1.68305796689576e-08
6.39720028306004e-08
9.52717069126901e-08
7.53433163778823e-08
2.54364265485596e-08
1.2036723225209e-12
2.21965049383725e-08
5.93147203195925e-08
6.56467222571932e-08
3.60363997891595e-08
5.50728099220537e-09
2.09004324634882e-09
1.61544639704122e-08
2.10241279557089e-08
1.00992876025434e-08
3.30601379734036e-10
4.24576997760276e-09
1.32632702993695e-08
1.25389662654707e-08
3.15235202879629e-09
1.0455296427966e-09
1.45681936300884e-08
3.03092558585515e-08
2.81841619057256e-08
9.60105989100273e-09
2.25251632683464e-10
1.72765135578556e-08
4.29294754947683e-08
4.48291545389066e-08
1.99690282597775e-08
4.41176754253595e-10
1.11240473331505e-08
3.72590292581195e-08
4.50074832731839e-08
2.53567353673225e-08
3.28077783642449e-09
2.80961378583559e-09
1.65553604181045e-08
2.00324486790509e-08
8.08141786308371e-09
8.84542294900453e-13
8.09804770309044e-09
1.91807709459763e-08
1.57830856443919e-08
3.02328674215104e-09
2.42284850817638e-09
2.31734253063252e-08
4.84694542175519e-08
5.27601311262058e-08
3.06026493211362e-08
4.94486700053633e-09
2.72899285203016e-09
2.34274273816568e-08
3.95999801693686e-08
3.12352669555526e-08
9.76531153114894e-09
1.01778028678594e-12
6.65562127972061e-09
1.23622283113428e-08
6.44493933526948e-09
2.13821584797887e-11
6.75355147566734e-09
2.04153604478802e-08
2.28733264866167e-08
1.02775897965488e-08
8.36431385623448e-11
8.819240475285e-09
2.9357209546408e-08
3.76882173597964e-08
2.28508993365278e-08
2.94225375659404e-09
4.18565692662286e-09
2.69968227320877e-08
4.36767487841293e-08
3.33696798628116e-08
9.12394486477823e-09
3.81443677434049e-10
1.42350600048239e-08
2.8021952699605e-08
2.2092277746277e-08
5.61515245970543e-09
4.06625475521656e-10
9.15667960966205e-09
1.43315006691191e-08
6.59072557235555e-09
4.44656412681302e-11
1.24111392983572e-08
3.70842138216285e-08
4.65348535670757e-08
2.74194461660872e-08
2.88480908948359e-09
7.03423328830549e-09
3.98155999825997e-08
6.40270120399483e-08
5.18140817624286e-08
1.84783729051567e-08
1.84010886774614e-10
9.08185149537083e-09
2.35787196221854e-08
2.04197568913873e-08
4.80678843709788e-09
1.45931913355912e-09
1.85838140478729e-08
3.31200302668877e-08
2.23945166069355e-08
1.93151001385328e-09
9.81666417023387e-09
5.05807776738802e-08
7.9965402523342e-08
6.12508346094367e-08
1.68911966176952e-08
7.77208848630881e-10
2.92688105775711e-08
6.42502584198268e-08
6.44472133963571e-08
3.27476032985297e-08
4.51376559327239e-09
2.00645717302335e-09
1.37209597655837e-08
1.65839703978768e-08
6.57337691001889e-09
1.44977589159281e-11
8.19966429878415e-09
2.00978709913626e-08
1.6847709337849e-08
2.19985417692762e-09
7.89673792793258e-09
5.54604986817226e-08
1.15118361605523e-07
1.26461989617857e-07
7.29312405866356e-08
1.16818807030876e-08
5.50119650492736e-09
4.60927286418613e-08
7.44468252445237e-08
5.9754469740955e-08
2.50068786924818e-08
3.37331756363823e-09
2.49681216629199e-10
1.66620685998138e-09
2.26439483204139e-10
2.11070644265267e-09
1.33597106085292e-08
2.70530823028624e-08
2.87612129168355e-08
1.507098068827e-08
1.23983655345502e-09
4.26104611176997e-09
2.09217578014655e-08
3.11483875904895e-08
2.3511970475843e-08
8.05913669126135e-09
2.56787054860192e-10
1.21265518122619e-09
1.61015290888054e-09
1.49481992038243e-11
6.57009197490007e-09
2.61151608367046e-08
4.51920749878822e-08
4.40344528489421e-08
2.16925919565763e-08
1.61819146427285e-09
6.22207519722581e-09
2.94182818309452e-08
4.29469357100319e-08
3.08313557705223e-08
8.33225410690543e-09
9.69541758914222e-11
6.95546835431412e-09
8.74719976596697e-09
7.89152911868463e-10
8.98896121959181e-09
5.42197523665856e-08
1.13026638203136e-07
1.35241650532815e-07
1.01096804150217e-07
4.31173707299044e-08
6.12442618260906e-09
6.70849898940392e-10
5.73856586866775e-09
4.71552728718486e-09
8.08255626340364e-10
3.13134202138587e-11
2.46973089080519e-11
6.80589779091536e-09
5.10532289025896e-08
1.70119833387018e-07
3.65937518730996e-07
5.797246402805e-07
7.11640941282455e-07
6.80294101932718e-07
4.85974320106206e-07
2.26438895236532e-07
3.90010544935973e-08
8.26480869120619e-09
1.20885000873064e-07
3.03305206123941e-07
4.93001063523556e-07
6.72985632084333e-07
8.53479069716744e-07
1.03014320165255e-06
1.15120871806191e-06
1.12398398175275e-06
8.82595808771271e-07
4.81901045805076e-07
1.16806696739205e-07
4.42426029918954e-09
2.11284402703823e-07
5.91077737336709e-07
8.97586401478894e-07
9.63636493439362e-07
7.91016612695228e-07
5.05469913248971e-07
2.47541454997823e-07
9.01770966101112e-08
2.57282842998252e-08
9.76361122966321e-09
1.17306539677488e-08
2.35396522515245e-08
3.33813739361466e-08
2.2806918191403e-08
1.74516739065072e-09
1.52672148396663e-08
8.68303702648655e-08
1.72737191758307e-07
2.02132242347677e-07
1.54419109403586e-07
7.4921932609971e-08
1.8914238569506e-08
8.51827446798156e-10
5.22961157916834e-10
2.01254114918492e-10
1.39285020199885e-09
1.0104271668932e-08
2.05731801194734e-08
2.07386765127434e-08
9.22238384604149e-09
9.47542163163955e-11
8.37524220497056e-09
3.14035053887423e-08
4.76430968985616e-08
3.89942240559033e-08
1.40190969060661e-08
6.33197544647146e-11
8.39660467921918e-09
1.9531841937713e-08
1.34659571884465e-08
9.61378215201737e-10
6.03221824374663e-09
2.62791067033496e-08
3.46643334230973e-08
1.99644457100533e-08
2.34411762504708e-09
2.86562208954389e-09
1.57959026883143e-08
2.08075836393562e-08
1.1377291297281e-08
8.50348362909596e-10
3.60846188659884e-09
1.65923787406162e-08
2.22741590191624e-08
1.14855946426791e-08
9.99732916147645e-11
1.2436573814745e-08
4.49701838066605e-08
6.23077877227296e-08
4.18821468127937e-08
8.18512355018019e-09
2.63430545359649e-09
2.83052151047529e-08
4.78042876764985e-08
3.53158616169122e-08
8.58394200285949e-09
7.67816743327425e-10
1.60622318520629e-08
2.82430080735296e-08
1.8860047377543e-08
2.12733847290691e-09
5.28720563699453e-09
3.10741921654459e-08
5.11580394608124e-08
4.08543626952751e-08
1.20869582978883e-08
3.80846547374443e-10
1.99088028493904e-08
4.50025747587736e-08
4.355024226519e-08
1.81225767101444e-08
3.97747609403844e-10
8.24754589200401e-09
2.41987675421696e-08
2.26609315949101e-08
6.29719387092438e-09
7.98926992819526e-10
1.63241841098297e-08
3.1287805474722e-08
2.31614708616063e-08
3.4527762560356e-09
5.02601936492848e-09
3.55152442355082e-08
6.14686336939325e-08
5.00437920977621e-08
1.46785138016041e-08
6.20533772038838e-10
2.68060831654773e-08
6.17073865378558e-08
6.42119680378175e-08
3.33089410507372e-08
4.27624457397027e-09
2.99889783200433e-09
1.87229846951633e-08
2.41528161616084e-08
1.18542103681904e-08
3.80411779567542e-10
5.57184058616655e-09
1.79349961845126e-08
1.75540948666313e-08
4.72217128645823e-09
1.15151534261787e-09
1.85047020897781e-08
3.91007131805501e-08
3.783142742448e-08
1.6019964695579e-08
3.45535751526785e-10
8.15036997283812e-09
2.6020597322734e-08
2.88802210799581e-08
1.28717626895655e-08
1.23720743980432e-10
1.03663002694218e-08
3.4012549762293e-08
4.11670590025347e-08
2.05992615272702e-08
4.45604193140405e-10
1.51067727058903e-08
5.5170007083471e-08
7.35765770261028e-08
4.75595530056554e-08
9.47962119392033e-09
1.87621156029046e-09
2.30693015066043e-08
3.72669808210284e-08
2.56961339099439e-08
5.68040403667387e-09
5.10518403842518e-10
8.63656231293289e-09
1.18479777646767e-08
4.50494074360605e-09
1.25990961452582e-10
8.11167911661826e-09
1.78722348939925e-08
1.47977988929823e-08
3.18390040477299e-09
1.50730860346492e-09
1.68616771738711e-08
3.34740473107459e-08
3.06547237523426e-08
1.02581647812846e-08
4.36552645141313e-10
2.32855995238042e-08
5.95529845418033e-08
6.42987569514292e-08
2.82190077874505e-08
1.4850906297008e-10
2.53277549964193e-08
8.10136310893877e-08
1.03224631381051e-07
6.70914900416751e-08
1.43868174684836e-08
2.78461204081242e-09
4.36988294492489e-08
9.29794905156421e-08
9.85859209437943e-08
5.57282981638002e-08
9.92250421927538e-09
2.17673762091488e-09
2.29727419306279e-08
3.30365116754844e-08
1.81524360238006e-08
1.48273267108482e-09
3.73886784663723e-09
1.43568934629662e-08
1.25755969432647e-08
1.6752333690239e-09
4.2793184211674e-09
2.75617586876616e-08
5.07720363697456e-08
5.15222356321133e-08
3.15249971198954e-08
9.9815167209042e-09
4.52678480766574e-10
1.38847564939346e-09
4.34243367172615e-09
4.39054749896751e-09
2.39522407362768e-09
9.02771629286642e-10
7.28457281315981e-10
2.80274607671334e-09
1.2229861770118e-08
3.52301782035684e-08
6.64293402914235e-08
8.28060553247646e-08
6.36064998980218e-08
2.16234299955836e-08
1.26710205517848e-11
2.36228383632219e-08
6.44427564480406e-08
7.43001151448745e-08
4.42952328182153e-08
9.86217891142579e-09
1.59010621996974e-10
6.59658678744976e-09
6.98372677834548e-09
5.98204936115944e-10
4.63150834486543e-09
2.39021593094259e-08
3.95222218533202e-08
3.21731868818496e-08
9.42440958876573e-09
6.2164418808881e-10
2.18886301339328e-08
5.30199816193563e-08
5.85617838131453e-08
3.12281355827116e-08
3.00133714220132e-09
6.9647813987834e-09
3.69003733019718e-08
5.55761933602666e-08
4.0583773495253e-08
1.05604773896876e-08
6.27046004024952e-10
1.8823652136485e-08
3.83896713740405e-08
3.44232539259995e-08
1.42405391539263e-08
1.16796755271301e-09
6.83424849989408e-10
9.568505142397e-10
5.57318725484017e-10
1.28044395831638e-08
3.84661601068687e-08
5.32466610067991e-08
3.65037224538e-08
5.82923280271017e-09
7.76687932302363e-09
6.6955753998866e-08
1.49859925319253e-07
1.89984054085025e-07
1.5380590320609e-07
7.50898790520183e-08
1.58761222564091e-08
1.8904071597158e-11
1.9713250766905e-09
9.09161050349023e-12
1.15496568510299e-08
5.49094765191761e-08
9.79308786869749e-08
8.4892477501618e-08
2.23863836587801e-08
8.66856884596189e-09
1.48184356436641e-07
4.33480445923199e-07
7.25836839963996e-07
8.63678068404817e-07
7.9018060186447e-07
5.77475090864824e-07
3.44724638772976e-07
1.6925648108776e-07
6.48699114195377e-08
1.32810790939539e-08
7.27782928996099e-10
3.92438968866918e-08
1.73126645711268e-07
4.60596955164141e-07
9.1697123424017e-07
1.44516120953717e-06
1.82979321281509e-06
1.84896536914059e-06
1.44422431353761e-06
7.99585903369148e-07
2.3732232928071e-07
2.70742183280328e-09
1.14222429030099e-07
3.93783831197402e-07
6.28811176859482e-07
7.14656245197204e-07
6.74681725426158e-07
5.864069008041e-07
5.0772427090929e-07
4.52629171665746e-07
4.01372139670453e-07
3.2225385885183e-07
2.02069079558262e-07
7.28838375654841e-08
1.9749878960287e-09
3.58980962494958e-08
1.47234904213771e-07
2.46481520019384e-07
2.57215154213245e-07
1.80109766125413e-07
8.06100393076725e-08
1.87098796718845e-08
9.83308562511942e-10
1.89913198331037e-11
7.42647269203938e-10
9.29035848246405e-09
2.58068028349287e-08
3.39921841004688e-08
2.34128644551462e-08
5.83198543347098e-09
3.38573655340799e-10
9.67704989334558e-09
1.84363681771293e-08
1.34084820569319e-08
1.69703960666508e-09
4.40388521030822e-09
2.89855520520954e-08
5.25464703858626e-08
4.51263891536976e-08
1.29010016765361e-08
1.81843286718005e-09
4.28441856207766e-08
1.04812892898055e-07
1.25108818340319e-07
8.47148958164059e-08
2.7374481695326e-08
7.80712787851536e-10
5.17573891842789e-09
1.12497162668923e-08
5.68405918315442e-09
2.08614345715347e-11
5.04574785844038e-09
1.40468309275416e-08
1.36209044856657e-08
3.73252698559443e-09
1.21552199782505e-09
2.03757921780021e-08
5.15862266424326e-08
6.63377370003202e-08
4.86562150319007e-08
1.59342046669606e-08
3.0719224889421e-11
1.01423152597176e-08
2.48492578603088e-08
2.23381339016298e-08
7.17237592315302e-09
7.17770682149636e-11
8.80852670677871e-09
1.97941109136142e-08
1.79018063438347e-08
6.09307069481133e-09
1.09422243611557e-11
5.8633010385368e-09
1.21807975912538e-08
8.05937937096799e-09
6.2093551693822e-10
2.69185243202143e-09
1.01538893484095e-08
8.74396378874217e-09
7.13670460527165e-10
5.98018804133715e-09
3.27153852428482e-08
6.02628896685915e-08
6.00524980997929e-08
3.03011790207887e-08
2.53359842997958e-09
7.91119109033845e-09
3.93258007226689e-08
5.76671760715024e-08
3.98117918834334e-08
8.23786206539829e-09
2.28474926409046e-09
2.8153451777049e-08
5.17648821560714e-08
4.21557152126921e-08
1.12609406858294e-08
1.58830940113978e-09
3.45975605948758e-08
8.07716542884483e-08
9.08212789050673e-08
5.37884143599498e-08
1.01609108743371e-08
2.03365503734939e-09
2.379824027423e-08
3.62591492868092e-08
2.15331049369162e-08
2.35949619285235e-09
3.27864877898186e-09
1.4978712635334e-08
1.37899537172034e-08
1.95478698007548e-09
4.29716438175412e-09
2.6919758610799e-08
4.29563193483095e-08
2.97228468596018e-08
4.52557207927915e-09
5.21691302302792e-09
3.78551968876433e-08
6.29756276732784e-08
4.56013906517926e-08
7.59272743618243e-09
8.15874047229537e-09
6.73260261908212e-08
1.29780055476068e-07
1.25496446170951e-07
5.7433310124511e-08
2.71980187476382e-09
2.20536278961328e-08
9.03527488153087e-08
1.30724500245796e-07
1.02737878934191e-07
3.9603531551163e-08
1.72857905121711e-09
9.9168243182393e-09
3.30758921855954e-08
3.47153323054343e-08
1.52868847857675e-08
8.31617363388343e-10
2.95312174830021e-09
8.55361475906256e-09
5.77625826369512e-09
4.38882648990511e-10
1.65058478199249e-09
5.73641308117966e-09
4.05392347780536e-09
9.59907361431176e-12
7.6785599527576e-09
3.08132948488619e-08
4.94571098005332e-08
3.90612173421957e-08
8.53256374881612e-09
5.08983085974557e-09
5.88988811575985e-08
1.29081951715648e-07
1.39811095121712e-07
7.71849394101777e-08
1.13623311759255e-08
5.76233789612451e-09
4.28437670698882e-08
6.30573407398454e-08
4.37945531017818e-08
1.22012118083882e-08
2.82471495799027e-11
1.0278158870266e-08
2.29261817108549e-08
2.02289407429979e-08
5.87037988193656e-09
5.90971461499127e-10
1.53370556536932e-08
3.28725757345598e-08
2.8907826252503e-08
8.47909734300347e-09
3.83939079148684e-10
1.32576439058083e-08
2.2927181195196e-08
1.26954136267929e-08
2.92381728925784e-10
8.72174887947662e-09
3.00731009585363e-08
3.7295439688046e-08
2.17249008817312e-08
2.95914287313242e-09
2.76881287228322e-09
1.84927643338516e-08
2.71362482416478e-08
1.57086860092162e-08
8.44897219755108e-10
7.93148622161312e-09
3.30775751930847e-08
4.34950743950253e-08
2.29231483069501e-08
5.17379714698187e-10
1.96641043621932e-08
8.35918833473503e-08
1.44631723118714e-07
1.505200758389e-07
9.68986066517867e-08
3.02777447355739e-08
2.68196527797992e-10
1.40095792158956e-08
3.93352490288802e-08
4.53296234647491e-08
3.0519395443629e-08
1.28281499211772e-08
3.96840179203019e-09
2.42759087078338e-09
6.05026480712526e-09
1.73524755827466e-08
3.20087183340325e-08
3.4831610517151e-08
1.89966837929236e-08
1.64881959546439e-09
5.3950571572579e-09
2.61481977541327e-08
3.53852239840473e-08
1.92120648679719e-08
7.96301643433052e-10
1.06496319213924e-08
4.2081830067607e-08
5.53242873666007e-08
3.07177055218664e-08
1.48551094143272e-09
1.81365868280356e-08
8.45378123455178e-08
1.44892875385327e-07
1.41316115856404e-07
7.72659240210928e-08
1.38282698578348e-08
3.03727485278846e-09
3.51276630206695e-08
5.83060848221609e-08
4.26201832085643e-08
1.03105411684726e-08
9.73855474842021e-10
1.99916042336866e-08
3.52359159156266e-08
2.33902722611557e-08
2.5972473159787e-09
6.02402741094935e-09
3.27666390969385e-08
4.72284772748053e-08
2.9579627341901e-08
4.10399166572433e-09
3.78076704594316e-09
2.2939368512081e-08
2.69708244598521e-08
7.13847987985177e-09
5.108685870652e-09
6.80601080172565e-08
1.83203586531988e-07
2.73074059840113e-07
2.6705181126186e-07
1.71883354405815e-07
6.15125276587479e-08
3.79796107488518e-09
1.15130143873379e-08
5.87558393471877e-08
1.21764020431994e-07
1.96489327144337e-07
2.90433233736255e-07
4.07226739029328e-07
5.34620002368043e-07
6.39692550908092e-07
6.74100111058322e-07
5.93591270041344e-07
3.94785794348111e-07
1.51706812999069e-07
5.26189292707858e-09
7.79833730016114e-08
3.70554917279296e-07
7.4544123316344e-07
1.02432751108533e-06
1.10741236230959e-06
1.01281979163761e-06
8.27968325351601e-07
6.36828846114499e-07
4.78858300022626e-07
3.49480779137986e-07
2.2406648801833e-07
9.39339322524093e-08
4.63263734377037e-09
5.61430683835373e-08
3.24998115541407e-07
7.55743220935633e-07
1.14582623277996e-06
1.27536727444378e-06
1.07359827425707e-06
6.67636833597979e-07
2.76402853530926e-07
5.1960334566105e-08
2.3963798952985e-10
2.70886126616023e-08
4.44901956937942e-08
3.20064139561497e-08
1.33717223094559e-08
5.16226764744221e-09
6.53253964234434e-09
2.10877943300837e-08
5.68183425695112e-08
1.01722121382682e-07
1.23074190406388e-07
1.01147994579341e-07
5.23537221907573e-08
1.20701759592644e-08
1.37121021176169e-11
6.19143128672883e-09
8.58926590897568e-09
1.71550230895952e-09
3.2709981967007e-09
2.75209581835597e-08
5.73875208744097e-08
5.87131068067271e-08
2.65937146665596e-08
4.77259353511472e-10
1.87681539762783e-08
6.84575635406655e-08
9.81227970634097e-08
7.91879792702378e-08
3.54375272288319e-08
6.27571737464172e-09
1.49080148757064e-11
3.06690906747201e-11
2.7031050832433e-09
2.12398465242181e-08
5.1490928326324e-08
6.2492799463081e-08
3.68039272952489e-08
3.66191131258738e-09
1.19565325467358e-08
7.31842471486146e-08
1.44150983714561e-07
1.67716660939675e-07
1.25689203156542e-07
5.31630382211154e-08
5.02813118548514e-09
6.63385255393507e-09
3.42043246804164e-08
4.52748839631175e-08
2.67769549020238e-08
4.08931134056173e-09
1.72052635434199e-09
1.15949849034254e-08
1.18113762925964e-08
2.35160589717305e-09
1.71549607625305e-09
1.36702908568828e-08
1.99531248067017e-08
1.02285309890565e-08
1.39234016851067e-10
8.15237390717968e-09
2.6563236368306e-08
3.06537550522725e-08
1.38277714878392e-08
4.21331991655506e-11
1.50851717558954e-08
5.16643438176617e-08
7.32952449146796e-08
5.60464193912807e-08
1.83916058838735e-08
2.63037829389323e-12
1.41668214649956e-08
3.43085023793544e-08
3.11308919123612e-08
1.00733405505148e-08
1.03401841177404e-10
1.20816218314095e-08
2.52212153863011e-08
1.89613715324304e-08
3.08958105092848e-09
2.98662853218736e-09
2.25034673874104e-08
3.78483714015356e-08
2.97647617631218e-08
8.70814102048845e-09
1.54556000372978e-10
1.07022124595676e-08
2.02082841499228e-08
1.18626102177926e-08
1.36276219024485e-10
1.3055401799323e-08
4.76541477583409e-08
6.48555143289819e-08
4.0777839155539e-08
5.26475203401568e-09
8.46671261732195e-09
5.63870279511697e-08
9.99897541050343e-08
9.17545249557094e-08
4.05148045915783e-08
1.79942825736413e-09
1.53848998787929e-08
5.96178118348699e-08
7.6691075798953e-08
4.39426052323065e-08
4.22755827325837e-09
1.10907257183352e-08
5.79609701439313e-08
8.77100883985777e-08
6.71619670142919e-08
2.3060456493558e-08
3.20611647464425e-10
9.37012859583374e-09
2.56592547735118e-08
2.62831096428277e-08
1.32124440468928e-08
2.31130932834031e-09
6.73755068688857e-12
8.59094950959476e-11
1.15694671130377e-09
1.12976422585888e-08
2.83545312999725e-08
3.31998647354834e-08
1.69249160126186e-08
5.42478475872124e-10
1.08552975696681e-08
4.43540012481459e-08
6.84692851529931e-08
5.76800718746265e-08
2.23406716607395e-08
1.72303431730147e-10
1.66511728802791e-08
5.30496520327532e-08
6.35158743629845e-08
3.2364509332502e-08
1.1857897651214e-09
1.76294178132744e-08
6.62604097604078e-08
8.34194507339765e-08
4.52055319991374e-08
3.36142477647684e-09
1.30292393709877e-08
5.60494673755575e-08
7.0071964552455e-08
3.70003857347319e-08
2.8569450119893e-09
9.02324050343921e-09
3.88438741236473e-08
4.819670358671e-08
2.60839539283627e-08
2.56348040577018e-09
5.02144002468915e-09
2.63591032006559e-08
3.87657634412786e-08
2.78197043759943e-08
7.04607960959473e-09
5.59364583994402e-10
1.41351854659634e-08
2.77928834951445e-08
2.16412243106515e-08
4.19612244369366e-09
2.54618795175637e-09
2.38131838097242e-08
4.22994120609149e-08
3.3598846090165e-08
8.95846703884362e-09
7.20468939851931e-10
1.81568206837407e-08
3.54753587277754e-08
2.8856963210397e-08
8.56548585986333e-09
2.56272514539044e-11
5.87139127064515e-09
7.94937588340824e-09
1.38595427140415e-09
3.146059300171e-09
2.26292898671445e-08
4.20970473396495e-08
3.78912985032138e-08
1.35825031668369e-08
6.6702529392696e-11
2.03482644885898e-08
6.05901317677777e-08
8.19859763463025e-08
6.17526569661471e-08
1.96081411462682e-08
1.0362775089849e-10
2.47578868160293e-08
6.37434028998135e-08
6.71650028916654e-08
2.89986176175632e-08
2.39655848069053e-10
2.18815665725376e-08
6.69286798122555e-08
7.77548690840659e-08
4.38119527293415e-08
7.48494152819792e-09
1.36812861519673e-09
1.34125586905871e-08
1.63763780527409e-08
6.25602462699743e-09
1.31332363877404e-11
6.87625143327273e-09
1.54340476649293e-08
1.14191361858586e-08
9.63163445106409e-10
6.60786868052449e-09
3.72667559822332e-08
7.00575317714439e-08
7.20985352242697e-08
3.97790606556644e-08
6.06349178207182e-09
3.21204697053349e-09
2.5165137082895e-08
3.69482382811216e-08
2.09461644676776e-08
1.08072099498976e-09
1.01977078056105e-08
4.12938596306785e-08
5.29209916762912e-08
2.79103437332422e-08
1.3885967928903e-09
1.15833164865057e-08
4.39968495375212e-08
5.3202661735447e-08
2.79539603475347e-08
2.59608850891074e-09
4.5152918034964e-09
1.9204420646323e-08
1.81150610741163e-08
3.02255457192651e-09
5.53736647713158e-09
4.47233598597593e-08
9.7020064453203e-08
1.16431455469324e-07
8.45117331493063e-08
3.19580927944698e-08
2.38134817098468e-09
2.17444232988011e-09
4.63017657321966e-09
6.73578700303804e-11
1.04846825669598e-08
4.30995261813015e-08
6.20643358674742e-08
3.58500805619155e-08
5.47618532195669e-10
4.90591245805031e-08
2.455134411834e-07
5.46541581845093e-07
8.07918497957773e-07
8.84260695140171e-07
7.41690115697035e-07
4.77442565813336e-07
2.29304175090792e-07
7.42286845476974e-08
9.60646507615384e-09
2.27262930612006e-09
3.63822159468695e-08
1.32115846751462e-07
3.42618751846851e-07
7.20335955014981e-07
1.24235103153633e-06
1.74360433375445e-06
1.95890517418474e-06
1.70654920540244e-06
1.07372146604491e-06
3.98696443358541e-07
2.83411943077498e-08
7.16420185660052e-08
3.69668294874755e-07
6.67341641695383e-07
7.9929776434322e-07
7.50849735561983e-07
6.02736098386697e-07
4.45572231016898e-07
3.30071713332488e-07
2.63998624313902e-07
2.29859678361164e-07
1.99232702351906e-07
1.45941715200167e-07
6.90612825386618e-08
7.73044102375539e-09
1.35490215355598e-08
9.34284667448758e-08
1.8855828746975e-07
2.24157603618175e-07
1.78863248824558e-07
9.67479571060896e-08
3.43191406161901e-08
9.04085658547062e-09
5.38643496131508e-09
1.50938502748035e-08
4.58004848481168e-08
8.8404357058359e-08
1.05643759713068e-07
7.41900551914918e-08
2.19484094266903e-08
1.07813184654444e-10
2.38245982078001e-08
5.91075958223707e-08
6.67262459063103e-08
4.31225921255451e-08
1.42335196241529e-08
9.32023443922531e-10
6.06545085453303e-10
6.42520871844819e-10
9.20981184138463e-10
1.56153710212477e-08
5.10787766027576e-08
8.72152149289482e-08
9.09875245088712e-08
5.42197203864517e-08
1.05571653783698e-08
2.72030702073487e-09
3.45377347054108e-08
6.80217153839224e-08
6.9060446115281e-08
4.21599685703622e-08
1.50110571311108e-08
2.90174718930683e-09
7.68684804253108e-10
2.50008488003379e-09
1.04670263912531e-08
2.25354219247129e-08
2.49766806344346e-08
1.12764773901681e-08
2.65928647916564e-13
1.63167000344297e-08
5.45712285170648e-08
7.62539163394729e-08
5.50176074067923e-08
1.3550994950781e-08
1.99189565333943e-09
3.98986964156498e-08
9.01217141331297e-08
9.75206016480328e-08
5.23619174316397e-08
5.30351415169152e-09
1.18351465030559e-08
6.75570117132251e-08
1.13829730109018e-07
1.07370378962031e-07
6.21042756687486e-08
2.05677821939253e-08
2.71698648578535e-09
1.76616535741053e-12
1.93942802726488e-10
2.64773389747245e-13
3.53827046971429e-10
8.81511550905521e-10
3.99504084244407e-10
3.02810996976415e-10
6.82106386573563e-09
2.83445295448901e-08
6.40775755172289e-08
9.38393555605088e-08
9.07503196387737e-08
5.12654414041888e-08
9.33579568360274e-09
2.41928887134597e-09
2.65420085270021e-08
4.25306279261957e-08
2.815089406503e-08
4.8028918098053e-09
1.87093982098654e-09
1.40266336024676e-08
1.44843466257173e-08
1.89461803890879e-09
7.17563492725039e-09
4.6123658078307e-08
8.64718592034793e-08
8.2972346870439e-08
3.78001778422631e-08
1.98354625074013e-09
1.18111324870944e-08
4.48412608740706e-08
5.37275815891066e-08
2.85264404316623e-08
3.06167347217813e-09
3.3985299287969e-09
1.532597479008e-08
1.30898931333348e-08
1.17109069487154e-09
7.33624792992319e-09
4.04106945215745e-08
7.3632712471034e-08
7.4007852631537e-08
3.97674328835199e-08
4.91203473352121e-09
6.89131266100831e-09
4.75089234189639e-08
8.7442448822623e-08
8.6802547749151e-08
4.89954926258901e-08
1.21438715897263e-08
8.24042232033438e-11
1.74012781324679e-09
7.17406606797722e-10
1.53292668467183e-09
1.42006159249417e-08
2.88395809292997e-08
2.49278399043e-08
5.32325497261639e-09
4.54068576323689e-09
4.92952979172983e-08
1.15605627064852e-07
1.44113452564489e-07
1.05664717468283e-07
3.72514770491004e-08
6.77509208585345e-10
1.53563055642949e-08
4.58595885489195e-08
5.04014299924424e-08
2.6062347791206e-08
2.84222968080212e-09
3.58847782122685e-09
1.93581191082431e-08
2.50050146046685e-08
1.25933617649959e-08
4.41638978957785e-10
6.00347412616067e-09
1.99568298395006e-08
2.03042245829009e-08
6.57260192732668e-09
1.9096353811588e-10
9.27894631568953e-09
1.56023022371066e-08
6.61952621873145e-09
4.42680922189237e-10
2.05579136322385e-08
5.63929571933041e-08
7.02574618081303e-08
4.50201142085781e-08
8.77915343110635e-09
2.78908958002822e-09
3.26483829081514e-08
6.24505739978076e-08
5.74712355364488e-08
2.40664926280484e-08
6.55050793174275e-10
1.06817943610889e-08
3.4099778721309e-08
3.48761401896288e-08
1.1387015289967e-08
7.17646707006373e-10
2.67582543993157e-08
6.31848516722458e-08
6.54599886431353e-08
3.00497738270498e-08
1.01524946139814e-09
1.40496240261377e-08
4.95765985526442e-08
5.76343935663238e-08
2.61734704807784e-08
2.82340660549731e-10
1.87358880065574e-08
5.55516801398725e-08
5.67863489320377e-08
2.06822513608739e-08
8.68630229938637e-11
2.65119729592944e-08
7.02085727838305e-08
8.40397282687409e-08
5.86239814673911e-08
2.1929701587047e-08
1.84417199550925e-09
1.61559047206971e-09
5.96327474699597e-09
3.4646285299425e-09
1.25195979585616e-11
5.81478510829918e-09
1.25326000519243e-08
4.92574311756573e-09
3.51208899031711e-09
6.01195113438027e-08
1.81162906621111e-07
2.8759201513001e-07
2.91883323874248e-07
1.95488917509883e-07
7.858245470067e-08
1.11942267403611e-08
1.53030144750519e-09
1.75384445715056e-08
3.01709018411505e-08
3.22233352929995e-08
3.14096992813049e-08
3.92312265217458e-08
7.21392704307445e-08
1.60363372126208e-07
3.37741012134992e-07
5.93447664671764e-07
8.22211241887878e-07
8.59720668563251e-07
6.28515869806242e-07
2.60024795920884e-07
1.78680432010524e-08
6.3630207813903e-08
3.24873725414876e-07
6.05391611457398e-07
7.77021355275621e-07
8.40859341885096e-07
8.56296769339928e-07
8.61667839563012e-07
8.47848871189182e-07
7.73925252873921e-07
6.05264476737386e-07
3.55544091005927e-07
1.08631191697923e-07
8.53329006597987e-11
1.49548429348007e-07
5.6075467679667e-07
1.05957685148474e-06
1.36406747002393e-06
1.28301412094341e-06
8.7628553530918e-07
4.02089356491763e-07
9.45828446074362e-08
1.13550137146514e-09
1.92664261535621e-08
4.06592308615693e-08
3.32659095265372e-08
1.64583746113845e-08
7.38902877976324e-09
7.1487338154573e-09
1.62378283747077e-08
3.7690544856861e-08
6.30622397417895e-08
7.10487763923938e-08
5.00160449914538e-08
1.63534361608276e-08
3.47148003705663e-11
1.06930044842244e-08
2.63839048027797e-08
2.21961863119985e-08
4.29440300698375e-09
3.64979829218335e-09
3.43802717890014e-08
7.05335250846569e-08
7.41800854507331e-08
4.11478161052872e-08
6.56485671724749e-09
2.56127624439485e-09
2.15089660913934e-08
3.1222069471925e-08
1.90643379348366e-08
3.27218836791049e-09
5.05413210685393e-10
3.69532618921262e-09
1.5155588172009e-09
1.11308443808674e-09
1.53602231382997e-08
3.72121540717556e-08
4.3326300955475e-08
2.43769004220594e-08
2.14415415062702e-09
8.27665404527301e-09
4.53154927153329e-08
7.7189492919508e-08
6.81770150429708e-08
2.74618500160261e-08
5.26176599737103e-10
1.41044415392446e-08
4.48809139670274e-08
5.15508512323106e-08
2.66152465301853e-08
2.15798867035976e-09
6.21887448474428e-09
2.75883598968871e-08
3.31780468923705e-08
1.42662717001925e-08
2.92559980825528e-13
1.79937662659807e-08
5.33666078391021e-08
6.38884169341261e-08
3.52331715969317e-08
3.13881596845579e-09
9.36825794665904e-09
4.66745413412621e-08
6.64792732028017e-08
4.23698123901904e-08
6.14049225610849e-09
6.03199531669066e-09
4.1680147986796e-08
6.46413241377694e-08
4.42468262077591e-08
8.14785326350137e-09
3.7111885249208e-09
3.57673521370553e-08
6.33685297837996e-08
5.39863922234658e-08
2.10580340170802e-08
7.80972642612361e-10
5.22498907264155e-09
1.38076823001031e-08
8.6197399976359e-09
1.46809000506034e-10
7.70041329196618e-09
2.60114438494485e-08
2.95987200326198e-08
1.13439129555785e-08
4.22482631897601e-10
2.90482802266187e-08
8.58782589064367e-08
1.18251755871979e-07
9.00281556926161e-08
2.88798149534342e-08
6.16008952831218e-11
3.12170055733501e-08
7.90710019636244e-08
8.2336800068031e-08
3.74205821950771e-08
1.27178862382711e-09
1.62500297801334e-08
5.50579200095848e-08
6.06761138556847e-08
2.6040845431513e-08
3.03720014234921e-10
1.58724771977613e-08
4.56772742815437e-08
4.73347448130988e-08
2.09834128905781e-08
9.88635731648409e-10
5.6071619470943e-09
1.74259729759157e-08
1.36445499907717e-08
1.03453643777819e-09
8.63654057661655e-09
4.45985297676458e-08
7.44386532971015e-08
6.0175753318799e-08
1.64512693816221e-08
1.93296256537451e-09
4.62695854983184e-08
1.08357078495942e-07
1.23614691007212e-07
7.8477333281023e-08
2.04549679278448e-08
1.7209546566434e-10
1.93635643002323e-08
3.93707546621826e-08
3.14992487084645e-08
8.09618649377041e-09
7.91003595181545e-10
1.72652864200444e-08
3.30585416758665e-08
2.64822691829669e-08
7.05150437977809e-09
5.37083300560655e-10
1.40063896080175e-08
2.7907289352072e-08
2.36871803950131e-08
8.16103973521246e-09
1.59250633632036e-10
1.04628087087905e-09
1.00904389173658e-10
6.51345215271735e-09
4.09257820375727e-08
8.6635300569701e-08
9.20346561450029e-08
4.37639166881351e-08
1.08036399386104e-09
3.0860992418208e-08
1.29469459902665e-07
2.25656761097416e-07
2.4759745260686e-07
1.81126411611693e-07
7.70455306513806e-08
8.12907213621261e-09
7.82433989360146e-09
4.48666476293019e-08
6.37403951758404e-08
4.60957095584988e-08
1.79567837543751e-08
3.75504940124845e-09
1.48439374512243e-09
6.15627615170299e-09
2.52249034802117e-08
5.46948866328004e-08
6.58368940566513e-08
4.01595414235808e-08
4.99166960576404e-09
9.50718688553488e-09
6.37025439826632e-08
1.18598955406987e-07
1.17797441891632e-07
6.17830474199202e-08
8.11218354300885e-09
6.90053698925323e-09
4.7939808076793e-08
7.82122045623911e-08
6.34825759712536e-08
2.24512870050651e-08
9.9544765873626e-11
1.40599338485223e-08
3.57635067429146e-08
3.0289788862384e-08
6.10503114581066e-09
3.49863682609531e-09
3.12468870862966e-08
4.71572247905805e-08
2.32079793023704e-08
2.89264249640433e-12
3.61065208747233e-08
1.16260149194727e-07
1.56516675163006e-07
1.09787710562886e-07
2.87884875593624e-08
